Time (ps), RMSD (nm)
0.000, 0.001
0.100, 0.237
0.200, 0.228
0.300, 0.214
0.400, 0.219
0.500, 0.205
0.600, 0.211
0.700, 0.207
0.800, 0.209
0.900, 0.216
1.000, 0.215
1.100, 0.210
1.200, 0.199
1.300, 0.182
1.400, 0.202
1.500, 0.193
1.600, 0.211
1.700, 0.188
1.800, 0.176
1.900, 0.182
2.000, 0.167
2.100, 0.180
2.200, 0.201
2.300, 0.173
2.400, 0.186
2.500, 0.169
2.600, 0.186
2.700, 0.202
2.800, 0.185
2.900, 0.202
3.000, 0.178
3.100, 0.209
3.200, 0.196
3.300, 0.212
3.400, 0.177
3.500, 0.197
3.600, 0.203
3.700, 0.211
3.800, 0.195
3.900, 0.204
4.000, 0.214
4.100, 0.239
4.200, 0.224
4.300, 0.217
4.400, 0.206
4.500, 0.188
4.600, 0.197
4.700, 0.208
4.800, 0.216
4.900, 0.201
5.000, 0.184
5.100, 0.214
5.200, 0.205
5.300, 0.191
5.400, 0.226
5.500, 0.227
5.600, 0.210
5.700, 0.202
5.800, 0.221
5.900, 0.195
6.000, 0.234
6.100, 0.212
6.200, 0.212
6.300, 0.211
6.400, 0.237
6.500, 0.217
6.600, 0.235
6.700, 0.210
6.800, 0.216
6.900, 0.188
7.000, 0.195
7.100, 0.185
7.200, 0.194
7.300, 0.233
7.400, 0.203
7.500, 0.188
7.600, 0.210
7.700, 0.189
7.800, 0.195
7.900, 0.209
8.000, 0.223
8.100, 0.223
8.200, 0.216
8.300, 0.210
8.400, 0.214
8.500, 0.192
8.600, 0.205
8.700, 0.195
8.800, 0.191
8.900, 0.190
9.000, 0.233
9.100, 0.201
9.200, 0.194
9.300, 0.213
9.400, 0.195
9.500, 0.190
9.600, 0.202
9.700, 0.172
9.800, 0.208
9.900, 0.210
10.000, 0.184
10.100, 0.170
10.200, 0.169
10.300, 0.176
10.400, 0.189
10.500, 0.183
10.600, 0.206
10.700, 0.216
10.800, 0.184
10.900, 0.165
11.000, 0.191
11.100, 0.183
11.200, 0.173
11.300, 0.166
11.400, 0.163
11.500, 0.162
11.600, 0.154
11.700, 0.155
11.800, 0.172
11.900, 0.151
12.000, 0.149
12.100, 0.165
12.200, 0.156
12.300, 0.160
12.400, 0.170
12.500, 0.160
12.600, 0.144
12.700, 0.162
12.800, 0.170
12.900, 0.170
13.000, 0.187
13.100, 0.164
13.200, 0.174
13.300, 0.182
13.400, 0.179
13.500, 0.176
13.600, 0.182
13.700, 0.167
13.800, 0.176
13.900, 0.189
14.000, 0.177
14.100, 0.183
14.200, 0.175
14.300, 0.176
14.400, 0.172
14.500, 0.168
14.600, 0.167
14.700, 0.174
14.800, 0.172
14.900, 0.178
15.000, 0.170
15.100, 0.164
15.200, 0.185
15.300, 0.165
15.400, 0.176
15.500, 0.193
15.600, 0.199
15.700, 0.197
15.800, 0.205
15.900, 0.162
16.000, 0.180
16.100, 0.172
16.200, 0.179
16.300, 0.181
16.400, 0.174
16.500, 0.165
16.600, 0.146
16.700, 0.175
16.800, 0.177
16.900, 0.168
17.000, 0.162
17.100, 0.177
17.200, 0.169
17.300, 0.185
17.400, 0.174
17.500, 0.172
17.600, 0.162
17.700, 0.159
17.800, 0.177
17.900, 0.202
18.000, 0.188
18.100, 0.188
18.200, 0.186
18.300, 0.174
18.400, 0.169
18.500, 0.153
18.600, 0.152
18.700, 0.160
18.800, 0.167
18.900, 0.189
19.000, 0.174
19.100, 0.189
19.200, 0.168
19.300, 0.190
19.400, 0.192
19.500, 0.196
19.600, 0.186
19.700, 0.174
19.800, 0.173
19.900, 0.168
20.000, 0.173
20.100, 0.192
20.200, 0.181
20.300, 0.184
20.400, 0.187
20.500, 0.186
20.600, 0.172
20.700, 0.165
20.800, 0.178
20.900, 0.186
21.000, 0.179
21.100, 0.189
21.200, 0.187
21.300, 0.179
21.400, 0.172
21.500, 0.182
21.600, 0.195
21.700, 0.201
21.800, 0.200
21.900, 0.177
22.000, 0.178
22.100, 0.195
22.200, 0.177
22.300, 0.193
22.400, 0.181
22.500, 0.169
22.600, 0.180
22.700, 0.197
22.800, 0.178
22.900, 0.167
23.000, 0.176
23.100, 0.178
23.200, 0.195
23.300, 0.180
23.400, 0.184
23.500, 0.179
23.600, 0.172
23.700, 0.191
23.800, 0.211
23.900, 0.193
24.000, 0.193
24.100, 0.199
24.200, 0.194
24.300, 0.163
24.400, 0.156
24.500, 0.170
24.600, 0.175
24.700, 0.180
24.800, 0.175
24.900, 0.168
25.000, 0.174
25.100, 0.179
25.200, 0.170
25.300, 0.157
25.400, 0.170
25.500, 0.172
25.600, 0.179
25.700, 0.194
25.800, 0.159
25.900, 0.160
26.000, 0.181
26.100, 0.193
26.200, 0.181
26.300, 0.181
26.400, 0.180
26.500, 0.171
26.600, 0.161
26.700, 0.159
26.800, 0.159
26.900, 0.169
27.000, 0.184
27.100, 0.188
27.200, 0.175
27.300, 0.179
27.400, 0.170
27.500, 0.160
27.600, 0.176
27.700, 0.170
27.800, 0.185
27.900, 0.185
28.000, 0.181
28.100, 0.166
28.200, 0.186
28.300, 0.195
28.400, 0.190
28.500, 0.160
28.600, 0.179
28.700, 0.184
28.800, 0.157
28.900, 0.172
29.000, 0.169
29.100, 0.146
29.200, 0.170
29.300, 0.193
29.400, 0.172
29.500, 0.179
29.600, 0.160
29.700, 0.185
29.800, 0.167
29.900, 0.174
30.000, 0.191
30.100, 0.155
30.200, 0.173
30.300, 0.176
30.400, 0.179
30.500, 0.165
30.600, 0.194
30.700, 0.170
30.800, 0.204
30.900, 0.170
31.000, 0.162
31.100, 0.196
31.200, 0.169
31.300, 0.169
31.400, 0.159
31.500, 0.165
31.600, 0.179
31.700, 0.183
31.800, 0.194
31.900, 0.173
32.000, 0.173
32.100, 0.195
32.200, 0.196
32.300, 0.196
32.400, 0.173
32.500, 0.152
32.600, 0.167
32.700, 0.160
32.800, 0.142
32.900, 0.178
33.000, 0.171
33.100, 0.191
33.200, 0.185
33.300, 0.185
33.400, 0.175
33.500, 0.166
33.600, 0.187
33.700, 0.192
33.800, 0.217
33.900, 0.182
34.000, 0.165
34.100, 0.182
34.200, 0.179
34.300, 0.187
34.400, 0.167
34.500, 0.188
34.600, 0.219
34.700, 0.217
34.800, 0.189
34.900, 0.171
35.000, 0.172
35.100, 0.182
35.200, 0.189
35.300, 0.170
35.400, 0.183
35.500, 0.170
35.600, 0.165
35.700, 0.178
35.800, 0.180
35.900, 0.188
36.000, 0.177
36.100, 0.174
36.200, 0.177
36.300, 0.196
36.400, 0.175
36.500, 0.178
36.600, 0.171
36.700, 0.180
36.800, 0.172
36.900, 0.168
37.000, 0.181
37.100, 0.171
37.200, 0.174
37.300, 0.195
37.400, 0.176
37.500, 0.173
37.600, 0.173
37.700, 0.178
37.800, 0.170
37.900, 0.165
38.000, 0.179
38.100, 0.160
38.200, 0.178
38.300, 0.197
38.400, 0.193
38.500, 0.178
38.600, 0.182
38.700, 0.169
38.800, 0.207
38.900, 0.180
39.000, 0.212
39.100, 0.214
39.200, 0.203
39.300, 0.198
39.400, 0.201
39.500, 0.246
39.600, 0.212
39.700, 0.217
39.800, 0.205
39.900, 0.196
40.000, 0.201
40.100, 0.191
40.200, 0.194
40.300, 0.196
40.400, 0.190
40.500, 0.222
40.600, 0.222
40.700, 0.186
40.800, 0.171
40.900, 0.169
41.000, 0.183
41.100, 0.193
41.200, 0.185
41.300, 0.182
41.400, 0.183
41.500, 0.210
41.600, 0.194
41.700, 0.192
41.800, 0.169
41.900, 0.176
42.000, 0.191
42.100, 0.174
42.200, 0.192
42.300, 0.202
42.400, 0.184
42.500, 0.203
42.600, 0.203
42.700, 0.198
42.800, 0.203
42.900, 0.218
43.000, 0.242
43.100, 0.206
43.200, 0.223
43.300, 0.216
43.400, 0.224
43.500, 0.202
43.600, 0.188
43.700, 0.201
43.800, 0.198
43.900, 0.205
44.000, 0.199
44.100, 0.197
44.200, 0.219
44.300, 0.231
44.400, 0.230
44.500, 0.227
44.600, 0.225
44.700, 0.238
44.800, 0.201
44.900, 0.194
45.000, 0.204
45.100, 0.173
45.200, 0.177
45.300, 0.178
45.400, 0.171
45.500, 0.184
45.600, 0.181
45.700, 0.171
45.800, 0.185
45.900, 0.186
46.000, 0.195
46.100, 0.225
46.200, 0.206
46.300, 0.207
46.400, 0.207
46.500, 0.201
46.600, 0.193
46.700, 0.182
46.800, 0.197
46.900, 0.178
47.000, 0.179
47.100, 0.182
47.200, 0.190
47.300, 0.200
47.400, 0.174
47.500, 0.175
47.600, 0.175
47.700, 0.183
47.800, 0.177
47.900, 0.166
48.000, 0.153
48.100, 0.176
48.200, 0.176
48.300, 0.182
48.400, 0.168
48.500, 0.184
48.600, 0.214
48.700, 0.178
48.800, 0.183
48.900, 0.181
49.000, 0.212
49.100, 0.209
49.200, 0.210
49.300, 0.207
49.400, 0.218
49.500, 0.227
49.600, 0.210
49.700, 0.229
49.800, 0.206
49.900, 0.195
50.000, 0.194
50.100, 0.170
50.200, 0.177
50.300, 0.202
50.400, 0.192
50.500, 0.188
50.600, 0.194
50.700, 0.186
50.800, 0.197
50.900, 0.201
51.000, 0.185
51.100, 0.198
51.200, 0.158
51.300, 0.188
51.400, 0.201
51.500, 0.177
51.600, 0.181
51.700, 0.171
51.800, 0.192
51.900, 0.192
52.000, 0.184
52.100, 0.197
52.200, 0.213
52.300, 0.205
52.400, 0.201
52.500, 0.203
52.600, 0.208
52.700, 0.203
52.800, 0.224
52.900, 0.184
53.000, 0.190
53.100, 0.181
53.200, 0.178
53.300, 0.192
53.400, 0.195
53.500, 0.207
53.600, 0.201
53.700, 0.196
53.800, 0.200
53.900, 0.199
54.000, 0.187
54.100, 0.203
54.200, 0.201
54.300, 0.210
54.400, 0.195
54.500, 0.201
54.600, 0.208
54.700, 0.197
54.800, 0.179
54.900, 0.170
55.000, 0.175
55.100, 0.192
55.200, 0.191
55.300, 0.199
55.400, 0.194
55.500, 0.190
55.600, 0.173
55.700, 0.185
55.800, 0.189
55.900, 0.166
56.000, 0.170
56.100, 0.174
56.200, 0.200
56.300, 0.192
56.400, 0.192
56.500, 0.199
56.600, 0.198
56.700, 0.212
56.800, 0.200
56.900, 0.188
57.000, 0.187
57.100, 0.182
57.200, 0.188
57.300, 0.185
57.400, 0.202
57.500, 0.201
57.600, 0.204
57.700, 0.182
57.800, 0.189
57.900, 0.191
58.000, 0.188
58.100, 0.178
58.200, 0.210
58.300, 0.213
58.400, 0.233
58.500, 0.228
58.600, 0.212
58.700, 0.219
58.800, 0.198
58.900, 0.190
59.000, 0.202
59.100, 0.206
59.200, 0.196
59.300, 0.196
59.400, 0.196
59.500, 0.189
59.600, 0.194
59.700, 0.207
59.800, 0.195
59.900, 0.204
60.000, 0.189
60.100, 0.218
60.200, 0.209
60.300, 0.181
60.400, 0.188
60.500, 0.193
60.600, 0.201
60.700, 0.177
60.800, 0.171
60.900, 0.174
61.000, 0.180
61.100, 0.195
61.200, 0.189
61.300, 0.194
61.400, 0.180
61.500, 0.184
61.600, 0.194
61.700, 0.176
61.800, 0.184
61.900, 0.184
62.000, 0.170
62.100, 0.198
62.200, 0.195
62.300, 0.202
62.400, 0.201
62.500, 0.203
62.600, 0.187
62.700, 0.185
62.800, 0.193
62.900, 0.186
63.000, 0.170
63.100, 0.192
63.200, 0.163
63.300, 0.178
63.400, 0.193
63.500, 0.189
63.600, 0.189
63.700, 0.185
63.800, 0.189
63.900, 0.194
64.000, 0.209
64.100, 0.188
64.200, 0.197
64.300, 0.182
64.400, 0.179
64.500, 0.173
64.600, 0.174
64.700, 0.171
64.800, 0.176
64.900, 0.173
65.000, 0.175
65.100, 0.197
65.200, 0.213
65.300, 0.217
65.400, 0.187
65.500, 0.196
65.600, 0.198
65.700, 0.185
65.800, 0.191
65.900, 0.190
66.000, 0.188
66.100, 0.212
66.200, 0.204
66.300, 0.208
66.400, 0.197
66.500, 0.244
66.600, 0.243
66.700, 0.227
66.800, 0.268
66.900, 0.225
67.000, 0.208
67.100, 0.228
67.200, 0.207
67.300, 0.225
67.400, 0.205
67.500, 0.226
67.600, 0.194
67.700, 0.195
67.800, 0.199
67.900, 0.202
68.000, 0.191
68.100, 0.200
68.200, 0.209
68.300, 0.216
68.400, 0.229
68.500, 0.212
68.600, 0.223
68.700, 0.212
68.800, 0.213
68.900, 0.212
69.000, 0.202
69.100, 0.207
69.200, 0.185
69.300, 0.186
69.400, 0.182
69.500, 0.213
69.600, 0.193
69.700, 0.178
69.800, 0.197
69.900, 0.173
70.000, 0.172
70.100, 0.187
70.200, 0.175
70.300, 0.196
70.400, 0.186
70.500, 0.183
70.600, 0.188
70.700, 0.185
70.800, 0.173
70.900, 0.209
71.000, 0.212
71.100, 0.210
71.200, 0.222
71.300, 0.220
71.400, 0.232
71.500, 0.200
71.600, 0.214
71.700, 0.211
71.800, 0.218
71.900, 0.243
72.000, 0.240
72.100, 0.215
72.200, 0.225
72.300, 0.198
72.400, 0.194
72.500, 0.200
72.600, 0.221
72.700, 0.219
72.800, 0.217
72.900, 0.220
73.000, 0.246
73.100, 0.250
73.200, 0.240
73.300, 0.238
73.400, 0.203
73.500, 0.210
73.600, 0.257
73.700, 0.265
73.800, 0.225
73.900, 0.242
74.000, 0.244
74.100, 0.263
74.200, 0.243
74.300, 0.240
74.400, 0.265
74.500, 0.240
74.600, 0.243
74.700, 0.237
74.800, 0.235
74.900, 0.248
75.000, 0.255
75.100, 0.242
75.200, 0.246
75.300, 0.240
75.400, 0.242
75.500, 0.268
75.600, 0.249
75.700, 0.246
75.800, 0.248
75.900, 0.242
76.000, 0.211
76.100, 0.226
76.200, 0.217
76.300, 0.237
76.400, 0.224
76.500, 0.247
76.600, 0.252
76.700, 0.236
76.800, 0.238
76.900, 0.223
77.000, 0.229
77.100, 0.211
77.200, 0.253
77.300, 0.241
77.400, 0.237
77.500, 0.239
77.600, 0.234
77.700, 0.292
77.800, 0.246
77.900, 0.248
78.000, 0.238
78.100, 0.245
78.200, 0.240
78.300, 0.235
78.400, 0.212
78.500, 0.222
78.600, 0.213
78.700, 0.203
78.800, 0.222
78.900, 0.246
79.000, 0.231
79.100, 0.240
79.200, 0.249
79.300, 0.227
79.400, 0.259
79.500, 0.238
79.600, 0.225
79.700, 0.232
79.800, 0.231
79.900, 0.223
80.000, 0.261
80.100, 0.262
80.200, 0.252
80.300, 0.238
80.400, 0.260
80.500, 0.246
80.600, 0.239
80.700, 0.230
80.800, 0.211
80.900, 0.237
81.000, 0.213
81.100, 0.201
81.200, 0.232
81.300, 0.251
81.400, 0.248
81.500, 0.222
81.600, 0.232
81.700, 0.224
81.800, 0.217
81.900, 0.220
82.000, 0.222
82.100, 0.213
82.200, 0.198
82.300, 0.204
82.400, 0.202
82.500, 0.200
82.600, 0.196
82.700, 0.200
82.800, 0.181
82.900, 0.206
83.000, 0.222
83.100, 0.183
83.200, 0.198
83.300, 0.196
83.400, 0.184
83.500, 0.203
83.600, 0.196
83.700, 0.207
83.800, 0.197
83.900, 0.204
84.000, 0.211
84.100, 0.202
84.200, 0.210
84.300, 0.202
84.400, 0.212
84.500, 0.209
84.600, 0.216
84.700, 0.222
84.800, 0.217
84.900, 0.219
85.000, 0.225
85.100, 0.220
85.200, 0.217
85.300, 0.230
85.400, 0.232
85.500, 0.211
85.600, 0.223
85.700, 0.212
85.800, 0.213
85.900, 0.233
86.000, 0.228
86.100, 0.227
86.200, 0.233
86.300, 0.253
86.400, 0.244
86.500, 0.258
86.600, 0.253
86.700, 0.253
86.800, 0.249
86.900, 0.239
87.000, 0.256
87.100, 0.255
87.200, 0.260
87.300, 0.280
87.400, 0.265
87.500, 0.234
87.600, 0.239
87.700, 0.222
87.800, 0.201
87.900, 0.217
88.000, 0.187
88.100, 0.181
88.200, 0.171
88.300, 0.171
88.400, 0.168
88.500, 0.182
88.600, 0.182
88.700, 0.161
88.800, 0.165
88.900, 0.209
89.000, 0.175
89.100, 0.161
89.200, 0.183
89.300, 0.173
89.400, 0.185
89.500, 0.191
89.600, 0.218
89.700, 0.179
89.800, 0.204
89.900, 0.192
90.000, 0.225
90.100, 0.193
90.200, 0.208
90.300, 0.172
90.400, 0.211
90.500, 0.209
90.600, 0.210
90.700, 0.219
90.800, 0.223
90.900, 0.198
91.000, 0.202
91.100, 0.191
91.200, 0.183
91.300, 0.209
91.400, 0.186
91.500, 0.214
91.600, 0.188
91.700, 0.200
91.800, 0.219
91.900, 0.233
92.000, 0.233
92.100, 0.228
92.200, 0.233
92.300, 0.230
92.400, 0.247
92.500, 0.239
92.600, 0.235
92.700, 0.231
92.800, 0.240
92.900, 0.232
93.000, 0.234
93.100, 0.227
93.200, 0.231
93.300, 0.256
93.400, 0.241
93.500, 0.254
93.600, 0.217
93.700, 0.211
93.800, 0.196
93.900, 0.195
94.000, 0.198
94.100, 0.186
94.200, 0.230
94.300, 0.227
94.400, 0.239
94.500, 0.195
94.600, 0.170
94.700, 0.195
94.800, 0.200
94.900, 0.180
95.000, 0.177
95.100, 0.184
95.200, 0.198
95.300, 0.195
95.400, 0.174
95.500, 0.187
95.600, 0.192
95.700, 0.190
95.800, 0.182
95.900, 0.195
96.000, 0.173
96.100, 0.218
96.200, 0.230
96.300, 0.189
96.400, 0.226
96.500, 0.234
96.600, 0.218
96.700, 0.227
96.800, 0.225
96.900, 0.218
97.000, 0.220
97.100, 0.230
97.200, 0.222
97.300, 0.226
97.400, 0.201
97.500, 0.230
97.600, 0.183
97.700, 0.185
97.800, 0.184
97.900, 0.204
98.000, 0.192
98.100, 0.210
98.200, 0.207
98.300, 0.205
98.400, 0.203
98.500, 0.243
98.600, 0.211
98.700, 0.218
98.800, 0.209
98.900, 0.232
99.000, 0.244
99.100, 0.255
99.200, 0.236
99.300, 0.217
99.400, 0.187
99.500, 0.195
99.600, 0.175
99.700, 0.178
99.800, 0.199
99.900, 0.207
100.000, 0.184
100.100, 0.202
100.200, 0.190
100.300, 0.195
100.400, 0.201
100.500, 0.219
100.600, 0.214
100.700, 0.213
100.800, 0.200
100.900, 0.201
101.000, 0.205
101.100, 0.190
101.200, 0.208
101.300, 0.192
101.400, 0.203
101.500, 0.210
101.600, 0.197
101.700, 0.196
101.800, 0.201
101.900, 0.201
102.000, 0.270
102.100, 0.217
102.200, 0.210
102.300, 0.211
102.400, 0.224
102.500, 0.230
102.600, 0.216
102.700, 0.230
102.800, 0.217
102.900, 0.200
103.000, 0.218
103.100, 0.194
103.200, 0.186
103.300, 0.194
103.400, 0.207
103.500, 0.196
103.600, 0.204
103.700, 0.219
103.800, 0.229
103.900, 0.230
104.000, 0.226
104.100, 0.251
104.200, 0.231
104.300, 0.206
104.400, 0.208
104.500, 0.181
104.600, 0.206
104.700, 0.204
104.800, 0.200
104.900, 0.196
105.000, 0.217
105.100, 0.200
105.200, 0.203
105.300, 0.218
105.400, 0.206
105.500, 0.236
105.600, 0.212
105.700, 0.177
105.800, 0.224
105.900, 0.192
106.000, 0.182
106.100, 0.211
106.200, 0.197
106.300, 0.241
106.400, 0.206
106.500, 0.220
106.600, 0.212
106.700, 0.230
106.800, 0.196
106.900, 0.176
107.000, 0.189
107.100, 0.190
107.200, 0.228
107.300, 0.208
107.400, 0.211
107.500, 0.220
107.600, 0.228
107.700, 0.207
107.800, 0.198
107.900, 0.228
108.000, 0.227
108.100, 0.226
108.200, 0.205
108.300, 0.222
108.400, 0.220
108.500, 0.219
108.600, 0.218
108.700, 0.207
108.800, 0.195
108.900, 0.199
109.000, 0.206
109.100, 0.190
109.200, 0.226
109.300, 0.235
109.400, 0.258
109.500, 0.240
109.600, 0.242
109.700, 0.210
109.800, 0.189
109.900, 0.212
110.000, 0.254
110.100, 0.239
110.200, 0.217
110.300, 0.254
110.400, 0.215
110.500, 0.206
110.600, 0.215
110.700, 0.202
110.800, 0.199
110.900, 0.205
111.000, 0.198
111.100, 0.200
111.200, 0.199
111.300, 0.203
111.400, 0.177
111.500, 0.212
111.600, 0.209
111.700, 0.183
111.800, 0.196
111.900, 0.199
112.000, 0.207
112.100, 0.215
112.200, 0.232
112.300, 0.221
112.400, 0.236
112.500, 0.242
112.600, 0.204
112.700, 0.178
112.800, 0.195
112.900, 0.200
113.000, 0.220
113.100, 0.212
113.200, 0.192
113.300, 0.201
113.400, 0.212
113.500, 0.185
113.600, 0.202
113.700, 0.214
113.800, 0.208
113.900, 0.200
114.000, 0.198
114.100, 0.197
114.200, 0.178
114.300, 0.189
114.400, 0.170
114.500, 0.184
114.600, 0.208
114.700, 0.217
114.800, 0.206
114.900, 0.221
115.000, 0.194
115.100, 0.187
115.200, 0.203
115.300, 0.185
115.400, 0.194
115.500, 0.201
115.600, 0.177
115.700, 0.181
115.800, 0.181
115.900, 0.215
116.000, 0.215
116.100, 0.204
116.200, 0.213
116.300, 0.202
116.400, 0.211
116.500, 0.219
116.600, 0.193
116.700, 0.211
116.800, 0.224
116.900, 0.213
117.000, 0.187
117.100, 0.182
117.200, 0.190
117.300, 0.198
117.400, 0.197
117.500, 0.205
117.600, 0.202
117.700, 0.192
117.800, 0.197
117.900, 0.219
118.000, 0.199
118.100, 0.199
118.200, 0.196
118.300, 0.217
118.400, 0.222
118.500, 0.186
118.600, 0.206
118.700, 0.219
118.800, 0.230
118.900, 0.222
119.000, 0.264
119.100, 0.274
119.200, 0.259
119.300, 0.225
119.400, 0.229
119.500, 0.232
119.600, 0.264
119.700, 0.249
119.800, 0.228
119.900, 0.223
120.000, 0.238
120.100, 0.253
120.200, 0.231
120.300, 0.238
120.400, 0.245
120.500, 0.238
120.600, 0.256
120.700, 0.276
120.800, 0.247
120.900, 0.245
121.000, 0.253
121.100, 0.266
121.200, 0.230
121.300, 0.247
121.400, 0.252
121.500, 0.240
121.600, 0.237
121.700, 0.239
121.800, 0.209
121.900, 0.213
122.000, 0.228
122.100, 0.237
122.200, 0.217
122.300, 0.217
122.400, 0.248
122.500, 0.255
122.600, 0.268
122.700, 0.228
122.800, 0.235
122.900, 0.217
123.000, 0.235
123.100, 0.236
123.200, 0.250
123.300, 0.243
123.400, 0.280
123.500, 0.256
123.600, 0.278
123.700, 0.267
123.800, 0.253
123.900, 0.254
124.000, 0.243
124.100, 0.246
124.200, 0.215
124.300, 0.241
124.400, 0.281
124.500, 0.251
124.600, 0.238
124.700, 0.237
124.800, 0.232
124.900, 0.237
125.000, 0.214
125.100, 0.210
125.200, 0.204
125.300, 0.195
125.400, 0.207
125.500, 0.234
125.600, 0.216
125.700, 0.236
125.800, 0.221
125.900, 0.208
126.000, 0.209
126.100, 0.203
126.200, 0.210
126.300, 0.228
126.400, 0.209
126.500, 0.241
126.600, 0.227
126.700, 0.223
126.800, 0.244
126.900, 0.231
127.000, 0.213
127.100, 0.211
127.200, 0.213
127.300, 0.236
127.400, 0.248
127.500, 0.243
127.600, 0.226
127.700, 0.206
127.800, 0.222
127.900, 0.225
128.000, 0.227
128.100, 0.190
128.200, 0.207
128.300, 0.228
128.400, 0.210
128.500, 0.223
128.600, 0.211
128.700, 0.197
128.800, 0.194
128.900, 0.229
129.000, 0.215
129.100, 0.186
129.200, 0.233
129.300, 0.225
129.400, 0.226
129.500, 0.207
129.600, 0.205
129.700, 0.181
129.800, 0.189
129.900, 0.221
130.000, 0.212
130.100, 0.216
130.200, 0.221
130.300, 0.197
130.400, 0.235
130.500, 0.232
130.600, 0.228
130.700, 0.236
130.800, 0.228
130.900, 0.227
131.000, 0.208
131.100, 0.223
131.200, 0.188
131.300, 0.212
131.400, 0.191
131.500, 0.204
131.600, 0.204
131.700, 0.213
131.800, 0.208
131.900, 0.234
132.000, 0.231
132.100, 0.222
132.200, 0.215
132.300, 0.229
132.400, 0.215
132.500, 0.194
132.600, 0.208
132.700, 0.217
132.800, 0.230
132.900, 0.234
133.000, 0.196
133.100, 0.221
133.200, 0.206
133.300, 0.196
133.400, 0.202
133.500, 0.189
133.600, 0.205
133.700, 0.195
133.800, 0.216
133.900, 0.202
134.000, 0.205
134.100, 0.190
134.200, 0.214
134.300, 0.214
134.400, 0.197
134.500, 0.198
134.600, 0.197
134.700, 0.197
134.800, 0.181
134.900, 0.192
135.000, 0.194
135.100, 0.195
135.200, 0.184
135.300, 0.208
135.400, 0.221
135.500, 0.210
135.600, 0.205
135.700, 0.224
135.800, 0.200
135.900, 0.198
136.000, 0.176
136.100, 0.183
136.200, 0.175
136.300, 0.175
136.400, 0.177
136.500, 0.175
136.600, 0.205
136.700, 0.256
136.800, 0.259
136.900, 0.231
137.000, 0.214
137.100, 0.204
137.200, 0.229
137.300, 0.225
137.400, 0.219
137.500, 0.185
137.600, 0.187
137.700, 0.181
137.800, 0.186
137.900, 0.211
138.000, 0.187
138.100, 0.188
138.200, 0.208
138.300, 0.234
138.400, 0.254
138.500, 0.241
138.600, 0.212
138.700, 0.201
138.800, 0.216
138.900, 0.198
139.000, 0.212
139.100, 0.209
139.200, 0.205
139.300, 0.200
139.400, 0.193
139.500, 0.197
139.600, 0.199
139.700, 0.172
139.800, 0.190
139.900, 0.167
140.000, 0.175
140.100, 0.179
140.200, 0.176
140.300, 0.161
140.400, 0.196
140.500, 0.184
140.600, 0.190
140.700, 0.199
140.800, 0.164
140.900, 0.171
141.000, 0.172
141.100, 0.182
141.200, 0.201
141.300, 0.204
141.400, 0.222
141.500, 0.199
141.600, 0.231
141.700, 0.232
141.800, 0.219
141.900, 0.213
142.000, 0.223
142.100, 0.213
142.200, 0.257
142.300, 0.260
142.400, 0.257
142.500, 0.255
142.600, 0.213
142.700, 0.207
142.800, 0.253
142.900, 0.253
143.000, 0.251
143.100, 0.229
143.200, 0.213
143.300, 0.212
143.400, 0.200
143.500, 0.197
143.600, 0.191
143.700, 0.196
143.800, 0.173
143.900, 0.188
144.000, 0.223
144.100, 0.239
144.200, 0.255
144.300, 0.196
144.400, 0.206
144.500, 0.194
144.600, 0.205
144.700, 0.224
144.800, 0.230
144.900, 0.244
145.000, 0.250
145.100, 0.226
145.200, 0.206
145.300, 0.190
145.400, 0.176
145.500, 0.208
145.600, 0.218
145.700, 0.195
145.800, 0.183
145.900, 0.199
146.000, 0.209
146.100, 0.184
146.200, 0.175
146.300, 0.179
146.400, 0.218
146.500, 0.213
146.600, 0.216
146.700, 0.209
146.800, 0.210
146.900, 0.215
147.000, 0.195
147.100, 0.209
147.200, 0.218
147.300, 0.196
147.400, 0.184
147.500, 0.198
147.600, 0.168
147.700, 0.193
147.800, 0.221
147.900, 0.200
148.000, 0.239
148.100, 0.237
148.200, 0.220
148.300, 0.197
148.400, 0.185
148.500, 0.198
148.600, 0.203
148.700, 0.226
148.800, 0.245
148.900, 0.234
149.000, 0.205
149.100, 0.203
149.200, 0.212
149.300, 0.215
149.400, 0.190
149.500, 0.221
149.600, 0.230
149.700, 0.221
149.800, 0.230
149.900, 0.196
150.000, 0.194
150.100, 0.211
150.200, 0.219
150.300, 0.227
150.400, 0.235
150.500, 0.246
150.600, 0.211
150.700, 0.205
150.800, 0.199
150.900, 0.217
151.000, 0.216
151.100, 0.218
151.200, 0.250
151.300, 0.199
151.400, 0.218
151.500, 0.220
151.600, 0.235
151.700, 0.238
151.800, 0.231
151.900, 0.236
152.000, 0.248
152.100, 0.234
152.200, 0.207
152.300, 0.225
152.400, 0.227
152.500, 0.219
152.600, 0.239
152.700, 0.220
152.800, 0.251
152.900, 0.267
153.000, 0.227
153.100, 0.235
153.200, 0.227
153.300, 0.228
153.400, 0.233
153.500, 0.203
153.600, 0.224
153.700, 0.213
153.800, 0.216
153.900, 0.200
154.000, 0.212
154.100, 0.244
154.200, 0.267
154.300, 0.271
154.400, 0.248
154.500, 0.228
154.600, 0.209
154.700, 0.213
154.800, 0.217
154.900, 0.240
155.000, 0.245
155.100, 0.243
155.200, 0.251
155.300, 0.267
155.400, 0.238
155.500, 0.236
155.600, 0.233
155.700, 0.242
155.800, 0.194
155.900, 0.203
156.000, 0.244
156.100, 0.241
156.200, 0.230
156.300, 0.225
156.400, 0.231
156.500, 0.238
156.600, 0.202
156.700, 0.193
156.800, 0.157
156.900, 0.169
157.000, 0.171
157.100, 0.200
157.200, 0.197
157.300, 0.167
157.400, 0.182
157.500, 0.191
157.600, 0.206
157.700, 0.209
157.800, 0.208
157.900, 0.212
158.000, 0.245
158.100, 0.238
158.200, 0.242
158.300, 0.250
158.400, 0.223
158.500, 0.214
158.600, 0.192
158.700, 0.206
158.800, 0.233
158.900, 0.233
159.000, 0.221
159.100, 0.227
159.200, 0.238
159.300, 0.209
159.400, 0.226
159.500, 0.221
159.600, 0.245
159.700, 0.228
159.800, 0.201
159.900, 0.222
160.000, 0.232
160.100, 0.253
160.200, 0.271
160.300, 0.233
160.400, 0.216
160.500, 0.202
160.600, 0.215
160.700, 0.215
160.800, 0.211
160.900, 0.200
161.000, 0.207
161.100, 0.200
161.200, 0.206
161.300, 0.228
161.400, 0.183
161.500, 0.206
161.600, 0.183
161.700, 0.199
161.800, 0.218
161.900, 0.223
162.000, 0.223
162.100, 0.241
162.200, 0.214
162.300, 0.222
162.400, 0.222
162.500, 0.227
162.600, 0.265
162.700, 0.250
162.800, 0.232
162.900, 0.203
163.000, 0.198
163.100, 0.199
163.200, 0.207
163.300, 0.207
163.400, 0.215
163.500, 0.198
163.600, 0.223
163.700, 0.239
163.800, 0.233
163.900, 0.243
164.000, 0.251
164.100, 0.231
164.200, 0.237
164.300, 0.226
164.400, 0.232
164.500, 0.220
164.600, 0.235
164.700, 0.199
164.800, 0.219
164.900, 0.225
165.000, 0.230
165.100, 0.238
165.200, 0.244
165.300, 0.217
165.400, 0.233
165.500, 0.246
165.600, 0.224
165.700, 0.237
165.800, 0.256
165.900, 0.247
166.000, 0.226
166.100, 0.229
166.200, 0.224
166.300, 0.209
166.400, 0.236
166.500, 0.239
166.600, 0.222
166.700, 0.193
166.800, 0.206
166.900, 0.232
167.000, 0.254
167.100, 0.240
167.200, 0.258
167.300, 0.261
167.400, 0.260
167.500, 0.265
167.600, 0.248
167.700, 0.236
167.800, 0.285
167.900, 0.273
168.000, 0.253
168.100, 0.240
168.200, 0.213
168.300, 0.222
168.400, 0.207
168.500, 0.219
168.600, 0.224
168.700, 0.210
168.800, 0.213
168.900, 0.193
169.000, 0.208
169.100, 0.229
169.200, 0.239
169.300, 0.215
169.400, 0.222
169.500, 0.220
169.600, 0.226
169.700, 0.204
169.800, 0.214
169.900, 0.201
170.000, 0.230
170.100, 0.194
170.200, 0.206
170.300, 0.194
170.400, 0.200
170.500, 0.191
170.600, 0.195
170.700, 0.208
170.800, 0.189
170.900, 0.208
171.000, 0.202
171.100, 0.189
171.200, 0.187
171.300, 0.217
171.400, 0.196
171.500, 0.189
171.600, 0.212
171.700, 0.197
171.800, 0.214
171.900, 0.188
172.000, 0.197
172.100, 0.191
172.200, 0.190
172.300, 0.204
172.400, 0.230
172.500, 0.196
172.600, 0.181
172.700, 0.200
172.800, 0.171
172.900, 0.188
173.000, 0.213
173.100, 0.205
173.200, 0.203
173.300, 0.192
173.400, 0.196
173.500, 0.193
173.600, 0.189
173.700, 0.217
173.800, 0.205
173.900, 0.201
174.000, 0.199
174.100, 0.210
174.200, 0.207
174.300, 0.229
174.400, 0.207
174.500, 0.227
174.600, 0.252
174.700, 0.238
174.800, 0.241
174.900, 0.224
175.000, 0.232
175.100, 0.218
175.200, 0.199
175.300, 0.249
175.400, 0.227
175.500, 0.264
175.600, 0.222
175.700, 0.213
175.800, 0.218
175.900, 0.245
176.000, 0.235
176.100, 0.229
176.200, 0.215
176.300, 0.255
176.400, 0.265
176.500, 0.253
176.600, 0.242
176.700, 0.227
176.800, 0.228
176.900, 0.204
177.000, 0.239
177.100, 0.232
177.200, 0.210
177.300, 0.243
177.400, 0.242
177.500, 0.243
177.600, 0.250
177.700, 0.227
177.800, 0.241
177.900, 0.258
178.000, 0.259
178.100, 0.244
178.200, 0.226
178.300, 0.220
178.400, 0.212
178.500, 0.214
178.600, 0.221
178.700, 0.223
178.800, 0.226
178.900, 0.235
179.000, 0.262
179.100, 0.244
179.200, 0.236
179.300, 0.218
179.400, 0.205
179.500, 0.186
179.600, 0.206
179.700, 0.195
179.800, 0.197
179.900, 0.193
180.000, 0.206
180.100, 0.217
180.200, 0.219
180.300, 0.187
180.400, 0.185
180.500, 0.216
180.600, 0.217
180.700, 0.217
180.800, 0.197
180.900, 0.206
181.000, 0.231
181.100, 0.196
181.200, 0.201
181.300, 0.201
181.400, 0.196
181.500, 0.206
181.600, 0.198
181.700, 0.197
181.800, 0.226
181.900, 0.234
182.000, 0.196
182.100, 0.228
182.200, 0.242
182.300, 0.235
182.400, 0.231
182.500, 0.248
182.600, 0.234
182.700, 0.237
182.800, 0.279
182.900, 0.253
183.000, 0.276
183.100, 0.241
183.200, 0.237
183.300, 0.214
183.400, 0.206
183.500, 0.212
183.600, 0.198
183.700, 0.210
183.800, 0.214
183.900, 0.219
184.000, 0.244
184.100, 0.242
184.200, 0.240
184.300, 0.244
184.400, 0.223
184.500, 0.223
184.600, 0.225
184.700, 0.211
184.800, 0.207
184.900, 0.222
185.000, 0.241
185.100, 0.213
185.200, 0.225
185.300, 0.216
185.400, 0.200
185.500, 0.220
185.600, 0.202
185.700, 0.211
185.800, 0.228
185.900, 0.231
186.000, 0.243
186.100, 0.254
186.200, 0.250
186.300, 0.279
186.400, 0.253
186.500, 0.231
186.600, 0.233
186.700, 0.223
186.800, 0.190
186.900, 0.206
187.000, 0.208
187.100, 0.197
187.200, 0.221
187.300, 0.236
187.400, 0.185
187.500, 0.207
187.600, 0.197
187.700, 0.199
187.800, 0.215
187.900, 0.221
188.000, 0.224
188.100, 0.219
188.200, 0.234
188.300, 0.229
188.400, 0.215
188.500, 0.205
188.600, 0.215
188.700, 0.210
188.800, 0.209
188.900, 0.211
189.000, 0.219
189.100, 0.240
189.200, 0.223
189.300, 0.235
189.400, 0.207
189.500, 0.229
189.600, 0.237
189.700, 0.246
189.800, 0.245
189.900, 0.242
190.000, 0.253
190.100, 0.248
190.200, 0.228
190.300, 0.226
190.400, 0.211
190.500, 0.228
190.600, 0.227
190.700, 0.238
190.800, 0.220
190.900, 0.220
191.000, 0.197
191.100, 0.190
191.200, 0.213
191.300, 0.210
191.400, 0.186
191.500, 0.194
191.600, 0.228
191.700, 0.238
191.800, 0.246
191.900, 0.234
192.000, 0.227
192.100, 0.235
192.200, 0.228
192.300, 0.243
192.400, 0.223
192.500, 0.213
192.600, 0.228
192.700, 0.255
192.800, 0.244
192.900, 0.248
193.000, 0.262
193.100, 0.230
193.200, 0.240
193.300, 0.248
193.400, 0.276
193.500, 0.238
193.600, 0.239
193.700, 0.252
193.800, 0.245
193.900, 0.245
194.000, 0.238
194.100, 0.226
194.200, 0.205
194.300, 0.233
194.400, 0.246
194.500, 0.239
194.600, 0.226
194.700, 0.226
194.800, 0.246
194.900, 0.243
195.000, 0.248
195.100, 0.225
195.200, 0.239
195.300, 0.236
195.400, 0.219
195.500, 0.222
195.600, 0.208
195.700, 0.223
195.800, 0.212
195.900, 0.202
196.000, 0.204
196.100, 0.188
196.200, 0.196
196.300, 0.200
196.400, 0.181
196.500, 0.196
196.600, 0.205
196.700, 0.201
196.800, 0.198
196.900, 0.178
197.000, 0.185
197.100, 0.183
197.200, 0.186
197.300, 0.189
197.400, 0.203
197.500, 0.191
197.600, 0.214
197.700, 0.221
197.800, 0.179
197.900, 0.181
198.000, 0.206
198.100, 0.209
198.200, 0.207
198.300, 0.218
198.400, 0.218
198.500, 0.211
198.600, 0.226
198.700, 0.210
198.800, 0.223
198.900, 0.202
199.000, 0.184
199.100, 0.220
199.200, 0.203
199.300, 0.216
199.400, 0.204
199.500, 0.193
199.600, 0.210
199.700, 0.224
199.800, 0.243
199.900, 0.215
200.000, 0.212
200.100, 0.223
200.200, 0.216
200.300, 0.236
200.400, 0.242
200.500, 0.215
200.600, 0.219
200.700, 0.227
200.800, 0.237
200.900, 0.248
201.000, 0.235
201.100, 0.251
201.200, 0.225
201.300, 0.240
201.400, 0.242
201.500, 0.249
201.600, 0.262
201.700, 0.222
201.800, 0.256
201.900, 0.267
202.000, 0.267
202.100, 0.228
202.200, 0.239
202.300, 0.247
202.400, 0.248
202.500, 0.261
202.600, 0.220
202.700, 0.226
202.800, 0.226
202.900, 0.245
203.000, 0.248
203.100, 0.214
203.200, 0.228
203.300, 0.211
203.400, 0.231
203.500, 0.219
203.600, 0.205
203.700, 0.245
203.800, 0.224
203.900, 0.226
204.000, 0.225
204.100, 0.224
204.200, 0.223
204.300, 0.229
204.400, 0.222
204.500, 0.232
204.600, 0.231
204.700, 0.235
204.800, 0.245
204.900, 0.227
205.000, 0.258
205.100, 0.249
205.200, 0.285
205.300, 0.238
205.400, 0.220
205.500, 0.203
205.600, 0.203
205.700, 0.218
205.800, 0.227
205.900, 0.225
206.000, 0.214
206.100, 0.224
206.200, 0.235
206.300, 0.241
206.400, 0.223
206.500, 0.210
206.600, 0.193
206.700, 0.186
206.800, 0.185
206.900, 0.184
207.000, 0.189
207.100, 0.216
207.200, 0.208
207.300, 0.209
207.400, 0.175
207.500, 0.191
207.600, 0.194
207.700, 0.187
207.800, 0.199
207.900, 0.200
208.000, 0.206
208.100, 0.156
208.200, 0.158
208.300, 0.168
208.400, 0.191
208.500, 0.197
208.600, 0.189
208.700, 0.188
208.800, 0.186
208.900, 0.188
209.000, 0.190
209.100, 0.179
209.200, 0.172
209.300, 0.175
209.400, 0.192
209.500, 0.209
209.600, 0.185
209.700, 0.160
209.800, 0.186
209.900, 0.187
210.000, 0.191
210.100, 0.195
210.200, 0.203
210.300, 0.199
210.400, 0.173
210.500, 0.185
210.600, 0.210
210.700, 0.215
210.800, 0.209
210.900, 0.171
211.000, 0.194
211.100, 0.195
211.200, 0.182
211.300, 0.186
211.400, 0.182
211.500, 0.184
211.600, 0.206
211.700, 0.197
211.800, 0.213
211.900, 0.200
212.000, 0.198
212.100, 0.198
212.200, 0.192
212.300, 0.174
212.400, 0.198
212.500, 0.193
212.600, 0.198
212.700, 0.201
212.800, 0.229
212.900, 0.209
213.000, 0.215
213.100, 0.233
213.200, 0.242
213.300, 0.206
213.400, 0.217
213.500, 0.201
213.600, 0.211
213.700, 0.203
213.800, 0.204
213.900, 0.213
214.000, 0.209
214.100, 0.187
214.200, 0.208
214.300, 0.202
214.400, 0.201
214.500, 0.195
214.600, 0.192
214.700, 0.197
214.800, 0.190
214.900, 0.202
215.000, 0.191
215.100, 0.209
215.200, 0.182
215.300, 0.201
215.400, 0.205
215.500, 0.195
215.600, 0.210
215.700, 0.208
215.800, 0.219
215.900, 0.234
216.000, 0.207
216.100, 0.204
216.200, 0.197
216.300, 0.212
216.400, 0.208
216.500, 0.198
216.600, 0.227
216.700, 0.229
216.800, 0.209
216.900, 0.231
217.000, 0.214
217.100, 0.210
217.200, 0.235
217.300, 0.240
217.400, 0.240
217.500, 0.246
217.600, 0.233
217.700, 0.211
217.800, 0.194
217.900, 0.226
218.000, 0.227
218.100, 0.208
218.200, 0.210
218.300, 0.181
218.400, 0.189
218.500, 0.189
218.600, 0.203
218.700, 0.210
218.800, 0.186
218.900, 0.195
219.000, 0.204
219.100, 0.213
219.200, 0.201
219.300, 0.209
219.400, 0.182
219.500, 0.182
219.600, 0.184
219.700, 0.202
219.800, 0.204
219.900, 0.195
220.000, 0.221
220.100, 0.232
220.200, 0.241
220.300, 0.203
220.400, 0.225
220.500, 0.223
220.600, 0.231
220.700, 0.231
220.800, 0.232
220.900, 0.230
221.000, 0.200
221.100, 0.223
221.200, 0.228
221.300, 0.213
221.400, 0.199
221.500, 0.196
221.600, 0.212
221.700, 0.200
221.800, 0.195
221.900, 0.224
222.000, 0.228
222.100, 0.209
222.200, 0.193
222.300, 0.232
222.400, 0.203
222.500, 0.174
222.600, 0.188
222.700, 0.199
222.800, 0.220
222.900, 0.196
223.000, 0.224
223.100, 0.205
223.200, 0.187
223.300, 0.200
223.400, 0.188
223.500, 0.210
223.600, 0.202
223.700, 0.210
223.800, 0.215
223.900, 0.190
224.000, 0.214
224.100, 0.209
224.200, 0.205
224.300, 0.223
224.400, 0.222
224.500, 0.209
224.600, 0.206
224.700, 0.196
224.800, 0.186
224.900, 0.175
225.000, 0.185
225.100, 0.203
225.200, 0.193
225.300, 0.207
225.400, 0.171
225.500, 0.183
225.600, 0.203
225.700, 0.192
225.800, 0.215
225.900, 0.225
226.000, 0.210
226.100, 0.200
226.200, 0.246
226.300, 0.223
226.400, 0.204
226.500, 0.236
226.600, 0.253
226.700, 0.258
226.800, 0.223
226.900, 0.204
227.000, 0.214
227.100, 0.217
227.200, 0.206
227.300, 0.214
227.400, 0.197
227.500, 0.242
227.600, 0.258
227.700, 0.236
227.800, 0.242
227.900, 0.214
228.000, 0.205
228.100, 0.192
228.200, 0.182
228.300, 0.201
228.400, 0.225
228.500, 0.227
228.600, 0.213
228.700, 0.204
228.800, 0.201
228.900, 0.196
229.000, 0.199
229.100, 0.222
229.200, 0.207
229.300, 0.212
229.400, 0.188
229.500, 0.194
229.600, 0.196
229.700, 0.205
229.800, 0.221
229.900, 0.201
230.000, 0.196
230.100, 0.230
230.200, 0.231
230.300, 0.221
230.400, 0.218
230.500, 0.203
230.600, 0.223
230.700, 0.214
230.800, 0.207
230.900, 0.196
231.000, 0.199
231.100, 0.205
231.200, 0.202
231.300, 0.195
231.400, 0.193
231.500, 0.199
231.600, 0.203
231.700, 0.201
231.800, 0.238
231.900, 0.218
232.000, 0.202
232.100, 0.203
232.200, 0.223
232.300, 0.212
232.400, 0.195
232.500, 0.216
232.600, 0.205
232.700, 0.205
232.800, 0.202
232.900, 0.213
233.000, 0.193
233.100, 0.231
233.200, 0.232
233.300, 0.223
233.400, 0.218
233.500, 0.257
233.600, 0.239
233.700, 0.228
233.800, 0.236
233.900, 0.203
234.000, 0.180
234.100, 0.172
234.200, 0.171
234.300, 0.166
234.400, 0.155
234.500, 0.165
234.600, 0.160
234.700, 0.170
234.800, 0.188
234.900, 0.228
235.000, 0.243
235.100, 0.211
235.200, 0.229
235.300, 0.197
235.400, 0.217
235.500, 0.231
235.600, 0.234
235.700, 0.194
235.800, 0.229
235.900, 0.231
236.000, 0.240
236.100, 0.231
236.200, 0.210
236.300, 0.192
236.400, 0.209
236.500, 0.217
236.600, 0.227
236.700, 0.191
236.800, 0.212
236.900, 0.220
237.000, 0.223
237.100, 0.191
237.200, 0.198
237.300, 0.178
237.400, 0.196
237.500, 0.202
237.600, 0.203
237.700, 0.189
237.800, 0.190
237.900, 0.207
238.000, 0.219
238.100, 0.199
238.200, 0.185
238.300, 0.182
238.400, 0.178
238.500, 0.221
238.600, 0.176
238.700, 0.183
238.800, 0.215
238.900, 0.221
239.000, 0.219
239.100, 0.170
239.200, 0.167
239.300, 0.167
239.400, 0.162
239.500, 0.149
239.600, 0.179
239.700, 0.219
239.800, 0.195
239.900, 0.236
240.000, 0.261
240.100, 0.277
240.200, 0.283
240.300, 0.288
240.400, 0.320
240.500, 0.284
240.600, 0.243
240.700, 0.229
240.800, 0.248
240.900, 0.249
241.000, 0.218
241.100, 0.214
241.200, 0.236
241.300, 0.221
241.400, 0.226
241.500, 0.225
241.600, 0.230
241.700, 0.217
241.800, 0.200
241.900, 0.214
242.000, 0.189
242.100, 0.205
242.200, 0.207
242.300, 0.195
242.400, 0.227
242.500, 0.181
242.600, 0.180
242.700, 0.200
242.800, 0.190
242.900, 0.206
243.000, 0.209
243.100, 0.250
243.200, 0.224
243.300, 0.238
243.400, 0.220
243.500, 0.204
243.600, 0.218
243.700, 0.224
243.800, 0.239
243.900, 0.255
244.000, 0.243
244.100, 0.227
244.200, 0.232
244.300, 0.213
244.400, 0.201
244.500, 0.251
244.600, 0.255
244.700, 0.246
244.800, 0.262
244.900, 0.272
245.000, 0.256
245.100, 0.231
245.200, 0.200
245.300, 0.221
245.400, 0.219
245.500, 0.261
245.600, 0.266
245.700, 0.240
245.800, 0.259
245.900, 0.230
246.000, 0.197
246.100, 0.247
246.200, 0.243
246.300, 0.232
246.400, 0.206
246.500, 0.251
246.600, 0.231
246.700, 0.241
246.800, 0.240
246.900, 0.217
247.000, 0.243
247.100, 0.244
247.200, 0.212
247.300, 0.215
247.400, 0.196
247.500, 0.202
247.600, 0.174
247.700, 0.208
247.800, 0.199
247.900, 0.225
248.000, 0.240
248.100, 0.221
248.200, 0.197
248.300, 0.191
248.400, 0.190
248.500, 0.181
248.600, 0.189
248.700, 0.184
248.800, 0.193
248.900, 0.194
249.000, 0.200
249.100, 0.201
249.200, 0.185
249.300, 0.207
249.400, 0.187
249.500, 0.205
249.600, 0.235
249.700, 0.207
249.800, 0.236
249.900, 0.243
250.000, 0.214
250.100, 0.208
250.200, 0.193
250.300, 0.199
250.400, 0.206
250.500, 0.199
250.600, 0.185
250.700, 0.201
250.800, 0.180
250.900, 0.213
251.000, 0.214
251.100, 0.219
251.200, 0.201
251.300, 0.195
251.400, 0.220
251.500, 0.210
251.600, 0.218
251.700, 0.197
251.800, 0.189
251.900, 0.202
252.000, 0.194
252.100, 0.197
252.200, 0.176
252.300, 0.203
252.400, 0.180
252.500, 0.184
252.600, 0.186
252.700, 0.221
252.800, 0.202
252.900, 0.236
253.000, 0.232
253.100, 0.216
253.200, 0.200
253.300, 0.228
253.400, 0.202
253.500, 0.188
253.600, 0.191
253.700, 0.217
253.800, 0.231
253.900, 0.204
254.000, 0.205
254.100, 0.196
254.200, 0.184
254.300, 0.204
254.400, 0.179
254.500, 0.193
254.600, 0.194
254.700, 0.160
254.800, 0.179
254.900, 0.188
255.000, 0.199
255.100, 0.206
255.200, 0.184
255.300, 0.193
255.400, 0.191
255.500, 0.196
255.600, 0.191
255.700, 0.195
255.800, 0.185
255.900, 0.191
256.000, 0.180
256.100, 0.184
256.200, 0.189
256.300, 0.186
256.400, 0.202
256.500, 0.202
256.600, 0.182
256.700, 0.189
256.800, 0.171
256.900, 0.202
257.000, 0.212
257.100, 0.230
257.200, 0.240
257.300, 0.249
257.400, 0.233
257.500, 0.220
257.600, 0.215
257.700, 0.216
257.800, 0.199
257.900, 0.222
258.000, 0.209
258.100, 0.209
258.200, 0.207
258.300, 0.252
258.400, 0.214
258.500, 0.245
258.600, 0.209
258.700, 0.231
258.800, 0.242
258.900, 0.226
259.000, 0.223
259.100, 0.233
259.200, 0.214
259.300, 0.231
259.400, 0.216
259.500, 0.213
259.600, 0.226
259.700, 0.207
259.800, 0.235
259.900, 0.231
260.000, 0.224
260.100, 0.181
260.200, 0.196
260.300, 0.243
260.400, 0.236
260.500, 0.230
260.600, 0.232
260.700, 0.260
260.800, 0.209
260.900, 0.246
261.000, 0.206
261.100, 0.200
261.200, 0.209
261.300, 0.217
261.400, 0.200
261.500, 0.214
261.600, 0.239
261.700, 0.211
261.800, 0.226
261.900, 0.221
262.000, 0.230
262.100, 0.258
262.200, 0.280
262.300, 0.276
262.400, 0.253
262.500, 0.242
262.600, 0.273
262.700, 0.234
262.800, 0.227
262.900, 0.259
263.000, 0.242
263.100, 0.258
263.200, 0.231
263.300, 0.247
263.400, 0.235
263.500, 0.233
263.600, 0.255
263.700, 0.263
263.800, 0.255
263.900, 0.265
264.000, 0.237
264.100, 0.217
264.200, 0.225
264.300, 0.203
264.400, 0.238
264.500, 0.241
264.600, 0.248
264.700, 0.253
264.800, 0.251
264.900, 0.263
265.000, 0.249
265.100, 0.276
265.200, 0.272
265.300, 0.280
265.400, 0.272
265.500, 0.274
265.600, 0.254
265.700, 0.249
265.800, 0.250
265.900, 0.245
266.000, 0.236
266.100, 0.248
266.200, 0.270
266.300, 0.254
266.400, 0.255
266.500, 0.249
266.600, 0.238
266.700, 0.239
266.800, 0.233
266.900, 0.275
267.000, 0.262
267.100, 0.229
267.200, 0.225
267.300, 0.223
267.400, 0.222
267.500, 0.253
267.600, 0.292
267.700, 0.275
267.800, 0.245
267.900, 0.270
268.000, 0.246
268.100, 0.212
268.200, 0.244
268.300, 0.279
268.400, 0.243
268.500, 0.232
268.600, 0.207
268.700, 0.207
268.800, 0.233
268.900, 0.202
269.000, 0.215
269.100, 0.229
269.200, 0.235
269.300, 0.236
269.400, 0.211
269.500, 0.237
269.600, 0.231
269.700, 0.233
269.800, 0.231
269.900, 0.229
270.000, 0.209
270.100, 0.222
270.200, 0.198
270.300, 0.218
270.400, 0.229
270.500, 0.208
270.600, 0.204
270.700, 0.193
270.800, 0.217
270.900, 0.236
271.000, 0.226
271.100, 0.209
271.200, 0.238
271.300, 0.241
271.400, 0.243
271.500, 0.264
271.600, 0.220
271.700, 0.214
271.800, 0.232
271.900, 0.229
272.000, 0.232
272.100, 0.218
272.200, 0.206
272.300, 0.204
272.400, 0.194
272.500, 0.205
272.600, 0.186
272.700, 0.178
272.800, 0.180
272.900, 0.193
273.000, 0.182
273.100, 0.182
273.200, 0.191
273.300, 0.188
273.400, 0.209
273.500, 0.195
273.600, 0.217
273.700, 0.194
273.800, 0.183
273.900, 0.181
274.000, 0.173
274.100, 0.155
274.200, 0.161
274.300, 0.173
274.400, 0.220
274.500, 0.186
274.600, 0.202
274.700, 0.189
274.800, 0.196
274.900, 0.193
275.000, 0.168
275.100, 0.178
275.200, 0.195
275.300, 0.209
275.400, 0.203
275.500, 0.209
275.600, 0.208
275.700, 0.200
275.800, 0.233
275.900, 0.217
276.000, 0.223
276.100, 0.214
276.200, 0.221
276.300, 0.253
276.400, 0.252
276.500, 0.230
276.600, 0.210
276.700, 0.200
276.800, 0.196
276.900, 0.215
277.000, 0.226
277.100, 0.218
277.200, 0.203
277.300, 0.223
277.400, 0.207
277.500, 0.195
277.600, 0.216
277.700, 0.216
277.800, 0.232
277.900, 0.243
278.000, 0.225
278.100, 0.210
278.200, 0.216
278.300, 0.212
278.400, 0.204
278.500, 0.215
278.600, 0.218
278.700, 0.215
278.800, 0.240
278.900, 0.237
279.000, 0.254
279.100, 0.227
279.200, 0.241
279.300, 0.219
279.400, 0.196
279.500, 0.209
279.600, 0.228
279.700, 0.229
279.800, 0.218
279.900, 0.223
280.000, 0.228
280.100, 0.237
280.200, 0.227
280.300, 0.224
280.400, 0.211
280.500, 0.227
280.600, 0.237
280.700, 0.217
280.800, 0.225
280.900, 0.227
281.000, 0.222
281.100, 0.214
281.200, 0.221
281.300, 0.216
281.400, 0.255
281.500, 0.236
281.600, 0.240
281.700, 0.217
281.800, 0.221
281.900, 0.215
282.000, 0.215
282.100, 0.233
282.200, 0.203
282.300, 0.226
282.400, 0.209
282.500, 0.245
282.600, 0.225
282.700, 0.204
282.800, 0.209
282.900, 0.200
283.000, 0.205
283.100, 0.226
283.200, 0.263
283.300, 0.237
283.400, 0.269
283.500, 0.229
283.600, 0.233
283.700, 0.211
283.800, 0.220
283.900, 0.214
284.000, 0.228
284.100, 0.238
284.200, 0.230
284.300, 0.227
284.400, 0.203
284.500, 0.217
284.600, 0.228
284.700, 0.226
284.800, 0.212
284.900, 0.222
285.000, 0.206
285.100, 0.204
285.200, 0.215
285.300, 0.211
285.400, 0.238
285.500, 0.239
285.600, 0.266
285.700, 0.246
285.800, 0.214
285.900, 0.221
286.000, 0.202
286.100, 0.207
286.200, 0.229
286.300, 0.228
286.400, 0.216
286.500, 0.236
286.600, 0.251
286.700, 0.224
286.800, 0.211
286.900, 0.227
287.000, 0.219
287.100, 0.196
287.200, 0.236
287.300, 0.218
287.400, 0.219
287.500, 0.204
287.600, 0.203
287.700, 0.218
287.800, 0.182
287.900, 0.192
288.000, 0.181
288.100, 0.194
288.200, 0.204
288.300, 0.197
288.400, 0.183
288.500, 0.211
288.600, 0.200
288.700, 0.201
288.800, 0.201
288.900, 0.190
289.000, 0.183
289.100, 0.216
289.200, 0.195
289.300, 0.214
289.400, 0.203
289.500, 0.212
289.600, 0.214
289.700, 0.202
289.800, 0.204
289.900, 0.202
290.000, 0.190
290.100, 0.197
290.200, 0.192
290.300, 0.210
290.400, 0.205
290.500, 0.186
290.600, 0.199
290.700, 0.190
290.800, 0.196
290.900, 0.195
291.000, 0.196
291.100, 0.182
291.200, 0.190
291.300, 0.223
291.400, 0.191
291.500, 0.188
291.600, 0.183
291.700, 0.204
291.800, 0.190
291.900, 0.189
292.000, 0.194
292.100, 0.190
292.200, 0.187
292.300, 0.185
292.400, 0.181
292.500, 0.195
292.600, 0.212
292.700, 0.205
292.800, 0.189
292.900, 0.185
293.000, 0.207
293.100, 0.190
293.200, 0.199
293.300, 0.202
293.400, 0.225
293.500, 0.216
293.600, 0.197
293.700, 0.213
293.800, 0.195
293.900, 0.204
294.000, 0.203
294.100, 0.228
294.200, 0.252
294.300, 0.200
294.400, 0.192
294.500, 0.205
294.600, 0.217
294.700, 0.206
294.800, 0.174
294.900, 0.183
295.000, 0.198
295.100, 0.200
295.200, 0.180
295.300, 0.198
295.400, 0.180
295.500, 0.167
295.600, 0.176
295.700, 0.175
295.800, 0.176
295.900, 0.174
296.000, 0.175
296.100, 0.185
296.200, 0.191
296.300, 0.175
296.400, 0.182
296.500, 0.165
296.600, 0.193
296.700, 0.201
296.800, 0.224
296.900, 0.227
297.000, 0.220
297.100, 0.199
297.200, 0.238
297.300, 0.215
297.400, 0.225
297.500, 0.201
297.600, 0.204
297.700, 0.222
297.800, 0.230
297.900, 0.233
298.000, 0.227
298.100, 0.241
298.200, 0.254
298.300, 0.259
298.400, 0.240
298.500, 0.252
298.600, 0.245
298.700, 0.235
298.800, 0.215
298.900, 0.207
299.000, 0.200
299.100, 0.246
299.200, 0.237
299.300, 0.228
299.400, 0.222
299.500, 0.222
299.600, 0.206
299.700, 0.232
299.800, 0.188
299.900, 0.199
300.000, 0.219
300.100, 0.220
300.200, 0.222
300.300, 0.236
300.400, 0.233
300.500, 0.214
300.600, 0.216
300.700, 0.264
300.800, 0.205
300.900, 0.218
301.000, 0.211
301.100, 0.226
301.200, 0.235
301.300, 0.264
301.400, 0.237
301.500, 0.230
301.600, 0.250
301.700, 0.237
301.800, 0.217
301.900, 0.249
302.000, 0.202
302.100, 0.197
302.200, 0.218
302.300, 0.214
302.400, 0.222
302.500, 0.208
302.600, 0.223
302.700, 0.198
302.800, 0.224
302.900, 0.242
303.000, 0.234
303.100, 0.235
303.200, 0.222
303.300, 0.240
303.400, 0.222
303.500, 0.262
303.600, 0.215
303.700, 0.237
303.800, 0.221
303.900, 0.220
304.000, 0.180
304.100, 0.216
304.200, 0.205
304.300, 0.193
304.400, 0.186
304.500, 0.226
304.600, 0.210
304.700, 0.199
304.800, 0.218
304.900, 0.220
305.000, 0.228
305.100, 0.213
305.200, 0.222
305.300, 0.242
305.400, 0.228
305.500, 0.222
305.600, 0.247
305.700, 0.221
305.800, 0.244
305.900, 0.248
306.000, 0.236
306.100, 0.250
306.200, 0.232
306.300, 0.234
306.400, 0.224
306.500, 0.217
306.600, 0.204
306.700, 0.220
306.800, 0.213
306.900, 0.189
307.000, 0.187
307.100, 0.211
307.200, 0.200
307.300, 0.197
307.400, 0.231
307.500, 0.237
307.600, 0.229
307.700, 0.235
307.800, 0.230
307.900, 0.237
308.000, 0.233
308.100, 0.219
308.200, 0.251
308.300, 0.242
308.400, 0.206
308.500, 0.235
308.600, 0.208
308.700, 0.239
308.800, 0.201
308.900, 0.198
309.000, 0.181
309.100, 0.197
309.200, 0.206
309.300, 0.212
309.400, 0.224
309.500, 0.198
309.600, 0.197
309.700, 0.193
309.800, 0.202
309.900, 0.216
310.000, 0.223
310.100, 0.188
310.200, 0.207
310.300, 0.191
310.400, 0.208
310.500, 0.218
310.600, 0.218
310.700, 0.239
310.800, 0.237
310.900, 0.240
311.000, 0.253
311.100, 0.262
311.200, 0.256
311.300, 0.230
311.400, 0.234
311.500, 0.205
311.600, 0.208
311.700, 0.233
311.800, 0.224
311.900, 0.241
312.000, 0.248
312.100, 0.237
312.200, 0.230
312.300, 0.235
312.400, 0.250
312.500, 0.203
312.600, 0.202
312.700, 0.200
312.800, 0.195
312.900, 0.207
313.000, 0.237
313.100, 0.246
313.200, 0.250
313.300, 0.247
313.400, 0.214
313.500, 0.209
313.600, 0.217
313.700, 0.266
313.800, 0.241
313.900, 0.213
314.000, 0.233
314.100, 0.252
314.200, 0.241
314.300, 0.226
314.400, 0.225
314.500, 0.221
314.600, 0.239
314.700, 0.249
314.800, 0.245
314.900, 0.212
315.000, 0.214
315.100, 0.217
315.200, 0.226
315.300, 0.198
315.400, 0.223
315.500, 0.207
315.600, 0.231
315.700, 0.224
315.800, 0.249
315.900, 0.246
316.000, 0.244
316.100, 0.225
316.200, 0.208
316.300, 0.227
316.400, 0.268
316.500, 0.245
316.600, 0.209
316.700, 0.224
316.800, 0.216
316.900, 0.203
317.000, 0.198
317.100, 0.194
317.200, 0.204
317.300, 0.225
317.400, 0.223
317.500, 0.217
317.600, 0.242
317.700, 0.250
317.800, 0.227
317.900, 0.250
318.000, 0.250
318.100, 0.236
318.200, 0.226
318.300, 0.213
318.400, 0.204
318.500, 0.218
318.600, 0.215
318.700, 0.220
318.800, 0.230
318.900, 0.218
319.000, 0.219
319.100, 0.202
319.200, 0.209
319.300, 0.225
319.400, 0.209
319.500, 0.220
319.600, 0.217
319.700, 0.214
319.800, 0.223
319.900, 0.213
320.000, 0.229
320.100, 0.209
320.200, 0.191
320.300, 0.196
320.400, 0.220
320.500, 0.213
320.600, 0.208
320.700, 0.234
320.800, 0.221
320.900, 0.207
321.000, 0.205
321.100, 0.202
321.200, 0.189
321.300, 0.170
321.400, 0.204
321.500, 0.217
321.600, 0.231
321.700, 0.215
321.800, 0.204
321.900, 0.208
322.000, 0.207
322.100, 0.207
322.200, 0.192
322.300, 0.190
322.400, 0.187
322.500, 0.196
322.600, 0.187
322.700, 0.200
322.800, 0.185
322.900, 0.189
323.000, 0.214
323.100, 0.226
323.200, 0.221
323.300, 0.212
323.400, 0.201
323.500, 0.200
323.600, 0.209
323.700, 0.205
323.800, 0.214
323.900, 0.209
324.000, 0.206
324.100, 0.220
324.200, 0.203
324.300, 0.228
324.400, 0.202
324.500, 0.195
324.600, 0.198
324.700, 0.227
324.800, 0.213
324.900, 0.218
325.000, 0.193
325.100, 0.214
325.200, 0.186
325.300, 0.207
325.400, 0.208
325.500, 0.221
325.600, 0.225
325.700, 0.212
325.800, 0.187
325.900, 0.186
326.000, 0.191
326.100, 0.175
326.200, 0.168
326.300, 0.174
326.400, 0.170
326.500, 0.198
326.600, 0.198
326.700, 0.209
326.800, 0.194
326.900, 0.200
327.000, 0.233
327.100, 0.213
327.200, 0.213
327.300, 0.200
327.400, 0.201
327.500, 0.226
327.600, 0.209
327.700, 0.239
327.800, 0.248
327.900, 0.243
328.000, 0.226
328.100, 0.247
328.200, 0.228
328.300, 0.229
328.400, 0.237
328.500, 0.221
328.600, 0.209
328.700, 0.189
328.800, 0.201
328.900, 0.201
329.000, 0.200
329.100, 0.209
329.200, 0.191
329.300, 0.199
329.400, 0.206
329.500, 0.227
329.600, 0.226
329.700, 0.210
329.800, 0.233
329.900, 0.222
330.000, 0.225
330.100, 0.200
330.200, 0.200
330.300, 0.201
330.400, 0.211
330.500, 0.217
330.600, 0.215
330.700, 0.206
330.800, 0.220
330.900, 0.229
331.000, 0.237
331.100, 0.233
331.200, 0.243
331.300, 0.214
331.400, 0.208
331.500, 0.194
331.600, 0.216
331.700, 0.216
331.800, 0.220
331.900, 0.227
332.000, 0.208
332.100, 0.232
332.200, 0.216
332.300, 0.219
332.400, 0.225
332.500, 0.231
332.600, 0.223
332.700, 0.198
332.800, 0.214
332.900, 0.230
333.000, 0.213
333.100, 0.238
333.200, 0.225
333.300, 0.249
333.400, 0.249
333.500, 0.212
333.600, 0.222
333.700, 0.233
333.800, 0.243
333.900, 0.233
334.000, 0.251
334.100, 0.218
334.200, 0.223
334.300, 0.235
334.400, 0.211
334.500, 0.223
334.600, 0.223
334.700, 0.225
334.800, 0.211
334.900, 0.236
335.000, 0.233
335.100, 0.224
335.200, 0.201
335.300, 0.214
335.400, 0.206
335.500, 0.211
335.600, 0.223
335.700, 0.208
335.800, 0.227
335.900, 0.222
336.000, 0.209
336.100, 0.206
336.200, 0.205
336.300, 0.206
336.400, 0.242
336.500, 0.205
336.600, 0.225
336.700, 0.213
336.800, 0.219
336.900, 0.207
337.000, 0.206
337.100, 0.221
337.200, 0.205
337.300, 0.219
337.400, 0.202
337.500, 0.201
337.600, 0.210
337.700, 0.211
337.800, 0.205
337.900, 0.209
338.000, 0.231
338.100, 0.220
338.200, 0.208
338.300, 0.185
338.400, 0.208
338.500, 0.199
338.600, 0.242
338.700, 0.219
338.800, 0.220
338.900, 0.203
339.000, 0.218
339.100, 0.201
339.200, 0.208
339.300, 0.227
339.400, 0.202
339.500, 0.200
339.600, 0.177
339.700, 0.214
339.800, 0.190
339.900, 0.181
340.000, 0.181
340.100, 0.194
340.200, 0.192
340.300, 0.204
340.400, 0.214
340.500, 0.223
340.600, 0.239
340.700, 0.233
340.800, 0.232
340.900, 0.222
341.000, 0.225
341.100, 0.198
341.200, 0.205
341.300, 0.200
341.400, 0.201
341.500, 0.212
341.600, 0.209
341.700, 0.247
341.800, 0.225
341.900, 0.226
342.000, 0.227
342.100, 0.194
342.200, 0.207
342.300, 0.188
342.400, 0.219
342.500, 0.206
342.600, 0.198
342.700, 0.208
342.800, 0.235
342.900, 0.241
343.000, 0.234
343.100, 0.238
343.200, 0.251
343.300, 0.228
343.400, 0.219
343.500, 0.205
343.600, 0.205
343.700, 0.242
343.800, 0.227
343.900, 0.262
344.000, 0.229
344.100, 0.242
344.200, 0.252
344.300, 0.237
344.400, 0.245
344.500, 0.246
344.600, 0.246
344.700, 0.243
344.800, 0.234
344.900, 0.228
345.000, 0.245
345.100, 0.229
345.200, 0.222
345.300, 0.212
345.400, 0.204
345.500, 0.219
345.600, 0.211
345.700, 0.249
345.800, 0.252
345.900, 0.220
346.000, 0.207
346.100, 0.209
346.200, 0.207
346.300, 0.225
346.400, 0.215
346.500, 0.231
346.600, 0.226
346.700, 0.253
346.800, 0.216
346.900, 0.208
347.000, 0.224
347.100, 0.213
347.200, 0.229
347.300, 0.238
347.400, 0.236
347.500, 0.222
347.600, 0.218
347.700, 0.241
347.800, 0.236
347.900, 0.221
348.000, 0.207
348.100, 0.215
348.200, 0.222
348.300, 0.213
348.400, 0.221
348.500, 0.212
348.600, 0.213
348.700, 0.201
348.800, 0.221
348.900, 0.206
349.000, 0.178
349.100, 0.170
349.200, 0.178
349.300, 0.178
349.400, 0.187
349.500, 0.195
349.600, 0.204
349.700, 0.193
349.800, 0.185
349.900, 0.182
350.000, 0.204
350.100, 0.197
350.200, 0.217
350.300, 0.193
350.400, 0.204
350.500, 0.203
350.600, 0.205
350.700, 0.197
350.800, 0.213
350.900, 0.204
351.000, 0.196
351.100, 0.210
351.200, 0.180
351.300, 0.215
351.400, 0.191
351.500, 0.187
351.600, 0.196
351.700, 0.214
351.800, 0.202
351.900, 0.203
352.000, 0.226
352.100, 0.205
352.200, 0.191
352.300, 0.227
352.400, 0.198
352.500, 0.191
352.600, 0.203
352.700, 0.220
352.800, 0.248
352.900, 0.218
353.000, 0.222
353.100, 0.238
353.200, 0.229
353.300, 0.197
353.400, 0.233
353.500, 0.217
353.600, 0.225
353.700, 0.201
353.800, 0.218
353.900, 0.208
354.000, 0.219
354.100, 0.226
354.200, 0.213
354.300, 0.209
354.400, 0.211
354.500, 0.239
354.600, 0.191
354.700, 0.219
354.800, 0.198
354.900, 0.189
355.000, 0.223
355.100, 0.198
355.200, 0.206
355.300, 0.201
355.400, 0.205
355.500, 0.192
355.600, 0.200
355.700, 0.229
355.800, 0.234
355.900, 0.243
356.000, 0.222
356.100, 0.200
356.200, 0.206
356.300, 0.205
356.400, 0.216
356.500, 0.196
356.600, 0.225
356.700, 0.216
356.800, 0.205
356.900, 0.233
357.000, 0.214
357.100, 0.198
357.200, 0.228
357.300, 0.200
357.400, 0.190
357.500, 0.190
357.600, 0.196
357.700, 0.190
357.800, 0.198
357.900, 0.185
358.000, 0.183
358.100, 0.190
358.200, 0.190
358.300, 0.191
358.400, 0.184
358.500, 0.200
358.600, 0.186
358.700, 0.185
358.800, 0.191
358.900, 0.207
359.000, 0.206
359.100, 0.202
359.200, 0.221
359.300, 0.222
359.400, 0.215
359.500, 0.218
359.600, 0.200
359.700, 0.210
359.800, 0.209
359.900, 0.216
360.000, 0.215
360.100, 0.216
360.200, 0.230
360.300, 0.210
360.400, 0.203
360.500, 0.206
360.600, 0.211
360.700, 0.204
360.800, 0.198
360.900, 0.211
361.000, 0.205
361.100, 0.220
361.200, 0.211
361.300, 0.209
361.400, 0.227
361.500, 0.210
361.600, 0.216
361.700, 0.213
361.800, 0.218
361.900, 0.239
362.000, 0.222
362.100, 0.218
362.200, 0.206
362.300, 0.200
362.400, 0.218
362.500, 0.212
362.600, 0.235
362.700, 0.249
362.800, 0.235
362.900, 0.213
363.000, 0.197
363.100, 0.220
363.200, 0.218
363.300, 0.206
363.400, 0.205
363.500, 0.218
363.600, 0.226
363.700, 0.211
363.800, 0.184
363.900, 0.190
364.000, 0.204
364.100, 0.188
364.200, 0.188
364.300, 0.213
364.400, 0.178
364.500, 0.207
364.600, 0.205
364.700, 0.208
364.800, 0.204
364.900, 0.210
365.000, 0.221
365.100, 0.206
365.200, 0.193
365.300, 0.190
365.400, 0.191
365.500, 0.202
365.600, 0.188
365.700, 0.201
365.800, 0.204
365.900, 0.194
366.000, 0.207
366.100, 0.195
366.200, 0.195
366.300, 0.194
366.400, 0.205
366.500, 0.204
366.600, 0.213
366.700, 0.201
366.800, 0.204
366.900, 0.209
367.000, 0.201
367.100, 0.232
367.200, 0.220
367.300, 0.220
367.400, 0.215
367.500, 0.200
367.600, 0.226
367.700, 0.224
367.800, 0.229
367.900, 0.248
368.000, 0.241
368.100, 0.250
368.200, 0.248
368.300, 0.249
368.400, 0.235
368.500, 0.247
368.600, 0.240
368.700, 0.255
368.800, 0.246
368.900, 0.214
369.000, 0.234
369.100, 0.235
369.200, 0.247
369.300, 0.247
369.400, 0.241
369.500, 0.231
369.600, 0.216
369.700, 0.219
369.800, 0.232
369.900, 0.242
370.000, 0.246
370.100, 0.227
370.200, 0.225
370.300, 0.233
370.400, 0.248
370.500, 0.212
370.600, 0.208
370.700, 0.209
370.800, 0.213
370.900, 0.202
371.000, 0.215
371.100, 0.242
371.200, 0.232
371.300, 0.246
371.400, 0.248
371.500, 0.232
371.600, 0.235
371.700, 0.229
371.800, 0.234
371.900, 0.206
372.000, 0.256
372.100, 0.240
372.200, 0.240
372.300, 0.240
372.400, 0.222
372.500, 0.232
372.600, 0.228
372.700, 0.219
372.800, 0.227
372.900, 0.212
373.000, 0.225
373.100, 0.248
373.200, 0.245
373.300, 0.250
373.400, 0.240
373.500, 0.244
373.600, 0.265
373.700, 0.219
373.800, 0.233
373.900, 0.232
374.000, 0.246
374.100, 0.238
374.200, 0.236
374.300, 0.239
374.400, 0.223
374.500, 0.213
374.600, 0.196
374.700, 0.221
374.800, 0.209
374.900, 0.220
375.000, 0.230
375.100, 0.216
375.200, 0.208
375.300, 0.202
375.400, 0.204
375.500, 0.207
375.600, 0.230
375.700, 0.215
375.800, 0.255
375.900, 0.241
376.000, 0.220
376.100, 0.226
376.200, 0.232
376.300, 0.223
376.400, 0.224
376.500, 0.250
376.600, 0.259
376.700, 0.236
376.800, 0.217
376.900, 0.230
377.000, 0.223
377.100, 0.229
377.200, 0.216
377.300, 0.211
377.400, 0.212
377.500, 0.228
377.600, 0.222
377.700, 0.226
377.800, 0.263
377.900, 0.223
378.000, 0.221
378.100, 0.215
378.200, 0.219
378.300, 0.210
378.400, 0.217
378.500, 0.207
378.600, 0.218
378.700, 0.216
378.800, 0.230
378.900, 0.251
379.000, 0.231
379.100, 0.265
379.200, 0.260
379.300, 0.249
379.400, 0.247
379.500, 0.232
379.600, 0.245
379.700, 0.253
379.800, 0.241
379.900, 0.233
380.000, 0.221
380.100, 0.228
380.200, 0.200
380.300, 0.206
380.400, 0.212
380.500, 0.235
380.600, 0.228
380.700, 0.206
380.800, 0.219
380.900, 0.253
381.000, 0.241
381.100, 0.207
381.200, 0.214
381.300, 0.228
381.400, 0.193
381.500, 0.198
381.600, 0.192
381.700, 0.228
381.800, 0.214
381.900, 0.220
382.000, 0.219
382.100, 0.206
382.200, 0.214
382.300, 0.214
382.400, 0.221
382.500, 0.222
382.600, 0.204
382.700, 0.219
382.800, 0.233
382.900, 0.232
383.000, 0.226
383.100, 0.230
383.200, 0.206
383.300, 0.251
383.400, 0.248
383.500, 0.247
383.600, 0.255
383.700, 0.286
383.800, 0.285
383.900, 0.291
384.000, 0.268
384.100, 0.232
384.200, 0.235
384.300, 0.226
384.400, 0.222
384.500, 0.219
384.600, 0.227
384.700, 0.222
384.800, 0.235
384.900, 0.245
385.000, 0.214
385.100, 0.232
385.200, 0.223
385.300, 0.202
385.400, 0.214
385.500, 0.208
385.600, 0.207
385.700, 0.205
385.800, 0.205
385.900, 0.224
386.000, 0.182
386.100, 0.192
386.200, 0.197
386.300, 0.197
386.400, 0.193
386.500, 0.214
386.600, 0.221
386.700, 0.208
386.800, 0.220
386.900, 0.211
387.000, 0.213
387.100, 0.197
387.200, 0.185
387.300, 0.198
387.400, 0.197
387.500, 0.201
387.600, 0.212
387.700, 0.203
387.800, 0.202
387.900, 0.205
388.000, 0.186
388.100, 0.222
388.200, 0.230
388.300, 0.200
388.400, 0.212
388.500, 0.211
388.600, 0.210
388.700, 0.224
388.800, 0.200
388.900, 0.208
389.000, 0.226
389.100, 0.219
389.200, 0.190
389.300, 0.187
389.400, 0.188
389.500, 0.201
389.600, 0.211
389.700, 0.227
389.800, 0.246
389.900, 0.233
390.000, 0.215
390.100, 0.211
390.200, 0.231
390.300, 0.225
390.400, 0.210
390.500, 0.205
390.600, 0.200
390.700, 0.197
390.800, 0.210
390.900, 0.208
391.000, 0.221
391.100, 0.224
391.200, 0.216
391.300, 0.216
391.400, 0.200
391.500, 0.219
391.600, 0.229
391.700, 0.225
391.800, 0.210
391.900, 0.201
392.000, 0.229
392.100, 0.200
392.200, 0.210
392.300, 0.215
392.400, 0.207
392.500, 0.203
392.600, 0.190
392.700, 0.217
392.800, 0.203
392.900, 0.206
393.000, 0.201
393.100, 0.189
393.200, 0.193
393.300, 0.181
393.400, 0.181
393.500, 0.188
393.600, 0.211
393.700, 0.226
393.800, 0.196
393.900, 0.195
394.000, 0.187
394.100, 0.234
394.200, 0.202
394.300, 0.209
394.400, 0.211
394.500, 0.227
394.600, 0.226
394.700, 0.234
394.800, 0.218
394.900, 0.203
395.000, 0.232
395.100, 0.222
395.200, 0.212
395.300, 0.245
395.400, 0.222
395.500, 0.219
395.600, 0.228
395.700, 0.210
395.800, 0.199
395.900, 0.193
396.000, 0.204
396.100, 0.216
396.200, 0.198
396.300, 0.211
396.400, 0.228
396.500, 0.245
396.600, 0.251
396.700, 0.272
396.800, 0.227
396.900, 0.208
397.000, 0.240
397.100, 0.245
397.200, 0.245
397.300, 0.234
397.400, 0.235
397.500, 0.221
397.600, 0.200
397.700, 0.209
397.800, 0.191
397.900, 0.210
398.000, 0.218
398.100, 0.219
398.200, 0.233
398.300, 0.223
398.400, 0.229
398.500, 0.222
398.600, 0.225
398.700, 0.229
398.800, 0.239
398.900, 0.242
399.000, 0.251
399.100, 0.231
399.200, 0.219
399.300, 0.205
399.400, 0.217
399.500, 0.216
399.600, 0.222
399.700, 0.225
399.800, 0.252
399.900, 0.217
400.000, 0.228
400.100, 0.219
400.200, 0.209
400.300, 0.214
400.400, 0.197
400.500, 0.220
400.600, 0.206
400.700, 0.222
400.800, 0.232
400.900, 0.226
401.000, 0.212
401.100, 0.220
401.200, 0.217
401.300, 0.198
401.400, 0.197
401.500, 0.197
401.600, 0.203
401.700, 0.195
401.800, 0.219
401.900, 0.216
402.000, 0.201
402.100, 0.201
402.200, 0.202
402.300, 0.194
402.400, 0.205
402.500, 0.205
402.600, 0.203
402.700, 0.222
402.800, 0.218
402.900, 0.237
403.000, 0.230
403.100, 0.208
403.200, 0.187
403.300, 0.207
403.400, 0.220
403.500, 0.217
403.600, 0.212
403.700, 0.254
403.800, 0.227
403.900, 0.230
404.000, 0.226
404.100, 0.226
404.200, 0.199
404.300, 0.227
404.400, 0.247
404.500, 0.221
404.600, 0.208
404.700, 0.233
404.800, 0.205
404.900, 0.202
405.000, 0.227
405.100, 0.213
405.200, 0.223
405.300, 0.208
405.400, 0.216
405.500, 0.202
405.600, 0.217
405.700, 0.204
405.800, 0.248
405.900, 0.223
406.000, 0.206
406.100, 0.198
406.200, 0.208
406.300, 0.221
406.400, 0.202
406.500, 0.207
406.600, 0.222
406.700, 0.220
406.800, 0.240
406.900, 0.233
407.000, 0.228
407.100, 0.231
407.200, 0.226
407.300, 0.244
407.400, 0.257
407.500, 0.250
407.600, 0.205
407.700, 0.224
407.800, 0.211
407.900, 0.216
408.000, 0.205
408.100, 0.215
408.200, 0.221
408.300, 0.225
408.400, 0.201
408.500, 0.183
408.600, 0.181
408.700, 0.205
408.800, 0.211
408.900, 0.196
409.000, 0.174
409.100, 0.202
409.200, 0.206
409.300, 0.200
409.400, 0.195
409.500, 0.207
409.600, 0.211
409.700, 0.235
409.800, 0.221
409.900, 0.218
410.000, 0.191
410.100, 0.204
410.200, 0.208
410.300, 0.224
410.400, 0.219
410.500, 0.238
410.600, 0.229
410.700, 0.272
410.800, 0.237
410.900, 0.225
411.000, 0.226
411.100, 0.195
411.200, 0.202
411.300, 0.211
411.400, 0.228
411.500, 0.219
411.600, 0.216
411.700, 0.237
411.800, 0.223
411.900, 0.212
412.000, 0.231
412.100, 0.239
412.200, 0.230
412.300, 0.227
412.400, 0.219
412.500, 0.185
412.600, 0.204
412.700, 0.236
412.800, 0.247
412.900, 0.236
413.000, 0.242
413.100, 0.226
413.200, 0.213
413.300, 0.209
413.400, 0.204
413.500, 0.199
413.600, 0.221
413.700, 0.226
413.800, 0.236
413.900, 0.203
414.000, 0.225
414.100, 0.226
414.200, 0.216
414.300, 0.213
414.400, 0.210
414.500, 0.214
414.600, 0.220
414.700, 0.216
414.800, 0.227
414.900, 0.234
415.000, 0.232
415.100, 0.227
415.200, 0.234
415.300, 0.248
415.400, 0.249
415.500, 0.248
415.600, 0.260
415.700, 0.261
415.800, 0.257
415.900, 0.233
416.000, 0.231
416.100, 0.251
416.200, 0.257
416.300, 0.251
416.400, 0.255
416.500, 0.222
416.600, 0.236
416.700, 0.231
416.800, 0.206
416.900, 0.215
417.000, 0.206
417.100, 0.193
417.200, 0.210
417.300, 0.226
417.400, 0.225
417.500, 0.264
417.600, 0.245
417.700, 0.236
417.800, 0.227
417.900, 0.209
418.000, 0.208
418.100, 0.212
418.200, 0.200
418.300, 0.210
418.400, 0.210
418.500, 0.192
418.600, 0.201
418.700, 0.212
418.800, 0.211
418.900, 0.203
419.000, 0.219
419.100, 0.201
419.200, 0.210
419.300, 0.218
419.400, 0.209
419.500, 0.218
419.600, 0.216
419.700, 0.197
419.800, 0.207
419.900, 0.203
420.000, 0.213
420.100, 0.210
420.200, 0.225
420.300, 0.218
420.400, 0.224
420.500, 0.212
420.600, 0.227
420.700, 0.230
420.800, 0.219
420.900, 0.198
421.000, 0.200
421.100, 0.200
421.200, 0.223
421.300, 0.253
421.400, 0.267
421.500, 0.263
421.600, 0.281
421.700, 0.280
421.800, 0.256
421.900, 0.228
422.000, 0.256
422.100, 0.225
422.200, 0.217
422.300, 0.235
422.400, 0.227
422.500, 0.227
422.600, 0.228
422.700, 0.218
422.800, 0.216
422.900, 0.208
423.000, 0.209
423.100, 0.219
423.200, 0.223
423.300, 0.208
423.400, 0.201
423.500, 0.186
423.600, 0.206
423.700, 0.239
423.800, 0.229
423.900, 0.222
424.000, 0.250
424.100, 0.185
424.200, 0.196
424.300, 0.241
424.400, 0.219
424.500, 0.231
424.600, 0.213
424.700, 0.189
424.800, 0.200
424.900, 0.215
425.000, 0.224
425.100, 0.242
425.200, 0.243
425.300, 0.232
425.400, 0.233
425.500, 0.242
425.600, 0.213
425.700, 0.218
425.800, 0.229
425.900, 0.200
426.000, 0.203
426.100, 0.209
426.200, 0.210
426.300, 0.228
426.400, 0.243
426.500, 0.228
426.600, 0.228
426.700, 0.221
426.800, 0.220
426.900, 0.238
427.000, 0.270
427.100, 0.285
427.200, 0.261
427.300, 0.227
427.400, 0.236
427.500, 0.254
427.600, 0.231
427.700, 0.266
427.800, 0.235
427.900, 0.249
428.000, 0.266
428.100, 0.256
428.200, 0.217
428.300, 0.223
428.400, 0.218
428.500, 0.221
428.600, 0.247
428.700, 0.265
428.800, 0.262
428.900, 0.258
429.000, 0.242
429.100, 0.257
429.200, 0.250
429.300, 0.250
429.400, 0.240
429.500, 0.254
429.600, 0.225
429.700, 0.220
429.800, 0.216
429.900, 0.229
430.000, 0.199
430.100, 0.202
430.200, 0.247
430.300, 0.273
430.400, 0.230
430.500, 0.238
430.600, 0.225
430.700, 0.216
430.800, 0.231
430.900, 0.229
431.000, 0.224
431.100, 0.237
431.200, 0.252
431.300, 0.266
431.400, 0.217
431.500, 0.230
431.600, 0.251
431.700, 0.224
431.800, 0.200
431.900, 0.228
432.000, 0.227
432.100, 0.227
432.200, 0.257
432.300, 0.233
432.400, 0.232
432.500, 0.268
432.600, 0.237
432.700, 0.262
432.800, 0.238
432.900, 0.246
433.000, 0.282
433.100, 0.291
433.200, 0.287
433.300, 0.277
433.400, 0.255
433.500, 0.276
433.600, 0.249
433.700, 0.245
433.800, 0.244
433.900, 0.224
434.000, 0.244
434.100, 0.242
434.200, 0.212
434.300, 0.214
434.400, 0.212
434.500, 0.219
434.600, 0.195
434.700, 0.228
434.800, 0.201
434.900, 0.221
435.000, 0.242
435.100, 0.227
435.200, 0.233
435.300, 0.236
435.400, 0.217
435.500, 0.223
435.600, 0.206
435.700, 0.206
435.800, 0.197
435.900, 0.217
436.000, 0.236
436.100, 0.232
436.200, 0.255
436.300, 0.265
436.400, 0.226
436.500, 0.237
436.600, 0.245
436.700, 0.259
436.800, 0.277
436.900, 0.244
437.000, 0.226
437.100, 0.252
437.200, 0.214
437.300, 0.212
437.400, 0.215
437.500, 0.214
437.600, 0.226
437.700, 0.214
437.800, 0.222
437.900, 0.232
438.000, 0.226
438.100, 0.239
438.200, 0.253
438.300, 0.232
438.400, 0.237
438.500, 0.209
438.600, 0.214
438.700, 0.217
438.800, 0.217
438.900, 0.231
439.000, 0.210
439.100, 0.213
439.200, 0.215
439.300, 0.199
439.400, 0.214
439.500, 0.214
439.600, 0.245
439.700, 0.242
439.800, 0.238
439.900, 0.229
440.000, 0.211
440.100, 0.211
440.200, 0.201
440.300, 0.207
440.400, 0.213
440.500, 0.209
440.600, 0.219
440.700, 0.215
440.800, 0.212
440.900, 0.204
441.000, 0.195
441.100, 0.196
441.200, 0.215
441.300, 0.200
441.400, 0.199
441.500, 0.197
441.600, 0.192
441.700, 0.208
441.800, 0.199
441.900, 0.203
442.000, 0.208
442.100, 0.217
442.200, 0.206
442.300, 0.198
442.400, 0.209
442.500, 0.218
442.600, 0.210
442.700, 0.216
442.800, 0.207
442.900, 0.221
443.000, 0.209
443.100, 0.198
443.200, 0.219
443.300, 0.207
443.400, 0.216
443.500, 0.239
443.600, 0.224
443.700, 0.218
443.800, 0.248
443.900, 0.268
444.000, 0.267
444.100, 0.267
444.200, 0.237
444.300, 0.250
444.400, 0.237
444.500, 0.230
444.600, 0.235
444.700, 0.237
444.800, 0.244
444.900, 0.244
445.000, 0.236
445.100, 0.265
445.200, 0.231
445.300, 0.245
445.400, 0.220
445.500, 0.237
445.600, 0.230
445.700, 0.212
445.800, 0.225
445.900, 0.224
446.000, 0.216
446.100, 0.221
446.200, 0.233
446.300, 0.221
446.400, 0.214
446.500, 0.237
446.600, 0.243
446.700, 0.224
446.800, 0.230
446.900, 0.253
447.000, 0.242
447.100, 0.217
447.200, 0.218
447.300, 0.223
447.400, 0.204
447.500, 0.194
447.600, 0.220
447.700, 0.208
447.800, 0.202
447.900, 0.215
448.000, 0.201
448.100, 0.221
448.200, 0.234
448.300, 0.227
448.400, 0.225
448.500, 0.223
448.600, 0.241
448.700, 0.250
448.800, 0.244
448.900, 0.246
449.000, 0.222
449.100, 0.228
449.200, 0.213
449.300, 0.223
449.400, 0.212
449.500, 0.208
449.600, 0.221
449.700, 0.195
449.800, 0.198
449.900, 0.206
450.000, 0.212
450.100, 0.193
450.200, 0.198
450.300, 0.207
450.400, 0.202
450.500, 0.212
450.600, 0.222
450.700, 0.202
450.800, 0.190
450.900, 0.193
451.000, 0.192
451.100, 0.185
451.200, 0.187
451.300, 0.190
451.400, 0.211
451.500, 0.186
451.600, 0.186
451.700, 0.198
451.800, 0.194
451.900, 0.193
452.000, 0.220
452.100, 0.216
452.200, 0.211
452.300, 0.225
452.400, 0.215
452.500, 0.235
452.600, 0.230
452.700, 0.233
452.800, 0.239
452.900, 0.221
453.000, 0.225
453.100, 0.200
453.200, 0.222
453.300, 0.233
453.400, 0.211
453.500, 0.228
453.600, 0.212
453.700, 0.224
453.800, 0.229
453.900, 0.213
454.000, 0.209
454.100, 0.210
454.200, 0.203
454.300, 0.194
454.400, 0.196
454.500, 0.234
454.600, 0.219
454.700, 0.226
454.800, 0.226
454.900, 0.249
455.000, 0.223
455.100, 0.238
455.200, 0.249
455.300, 0.251
455.400, 0.225
455.500, 0.224
455.600, 0.213
455.700, 0.195
455.800, 0.205
455.900, 0.212
456.000, 0.204
456.100, 0.194
456.200, 0.206
456.300, 0.235
456.400, 0.215
456.500, 0.193
456.600, 0.214
456.700, 0.200
456.800, 0.218
456.900, 0.188
457.000, 0.220
457.100, 0.214
457.200, 0.200
457.300, 0.196
457.400, 0.213
457.500, 0.211
457.600, 0.221
457.700, 0.236
457.800, 0.205
457.900, 0.221
458.000, 0.206
458.100, 0.196
458.200, 0.202
458.300, 0.198
458.400, 0.216
458.500, 0.217
458.600, 0.218
458.700, 0.216
458.800, 0.230
458.900, 0.217
459.000, 0.209
459.100, 0.209
459.200, 0.211
459.300, 0.223
459.400, 0.195
459.500, 0.223
459.600, 0.234
459.700, 0.237
459.800, 0.223
459.900, 0.214
460.000, 0.221
460.100, 0.221
460.200, 0.237
460.300, 0.252
460.400, 0.241
460.500, 0.234
460.600, 0.258
460.700, 0.229
460.800, 0.239
460.900, 0.221
461.000, 0.222
461.100, 0.221
461.200, 0.215
461.300, 0.229
461.400, 0.202
461.500, 0.212
461.600, 0.212
461.700, 0.194
461.800, 0.198
461.900, 0.196
462.000, 0.210
462.100, 0.213
462.200, 0.207
462.300, 0.210
462.400, 0.212
462.500, 0.255
462.600, 0.233
462.700, 0.227
462.800, 0.230
462.900, 0.239
463.000, 0.221
463.100, 0.232
463.200, 0.229
463.300, 0.210
463.400, 0.215
463.500, 0.202
463.600, 0.211
463.700, 0.226
463.800, 0.194
463.900, 0.198
464.000, 0.192
464.100, 0.189
464.200, 0.183
464.300, 0.195
464.400, 0.184
464.500, 0.186
464.600, 0.192
464.700, 0.185
464.800, 0.166
464.900, 0.175
465.000, 0.163
465.100, 0.189
465.200, 0.229
465.300, 0.215
465.400, 0.193
465.500, 0.220
465.600, 0.222
465.700, 0.202
465.800, 0.201
465.900, 0.213
466.000, 0.205
466.100, 0.201
466.200, 0.211
466.300, 0.217
466.400, 0.198
466.500, 0.190
466.600, 0.203
466.700, 0.210
466.800, 0.199
466.900, 0.225
467.000, 0.185
467.100, 0.188
467.200, 0.189
467.300, 0.184
467.400, 0.215
467.500, 0.238
467.600, 0.222
467.700, 0.188
467.800, 0.208
467.900, 0.222
468.000, 0.216
468.100, 0.202
468.200, 0.194
468.300, 0.212
468.400, 0.191
468.500, 0.194
468.600, 0.213
468.700, 0.201
468.800, 0.217
468.900, 0.218
469.000, 0.203
469.100, 0.198
469.200, 0.204
469.300, 0.195
469.400, 0.214
469.500, 0.221
469.600, 0.218
469.700, 0.222
469.800, 0.229
469.900, 0.195
470.000, 0.184
470.100, 0.215
470.200, 0.194
470.300, 0.192
470.400, 0.174
470.500, 0.159
470.600, 0.178
470.700, 0.177
470.800, 0.161
470.900, 0.170
471.000, 0.191
471.100, 0.169
471.200, 0.187
471.300, 0.182
471.400, 0.186
471.500, 0.198
471.600, 0.189
471.700, 0.206
471.800, 0.187
471.900, 0.189
472.000, 0.208
472.100, 0.192
472.200, 0.201
472.300, 0.190
472.400, 0.233
472.500, 0.212
472.600, 0.206
472.700, 0.195
472.800, 0.219
472.900, 0.223
473.000, 0.210
473.100, 0.204
473.200, 0.213
473.300, 0.204
473.400, 0.218
473.500, 0.212
473.600, 0.211
473.700, 0.197
473.800, 0.193
473.900, 0.218
474.000, 0.210
474.100, 0.188
474.200, 0.191
474.300, 0.198
474.400, 0.188
474.500, 0.198
474.600, 0.198
474.700, 0.202
474.800, 0.181
474.900, 0.207
475.000, 0.184
475.100, 0.183
475.200, 0.194
475.300, 0.199
475.400, 0.213
475.500, 0.232
475.600, 0.217
475.700, 0.208
475.800, 0.201
475.900, 0.205
476.000, 0.195
476.100, 0.186
476.200, 0.192
476.300, 0.191
476.400, 0.195
476.500, 0.186
476.600, 0.176
476.700, 0.178
476.800, 0.174
476.900, 0.162
477.000, 0.184
477.100, 0.195
477.200, 0.201
477.300, 0.199
477.400, 0.202
477.500, 0.218
477.600, 0.192
477.700, 0.198
477.800, 0.217
477.900, 0.203
478.000, 0.201
478.100, 0.203
478.200, 0.216
478.300, 0.200
478.400, 0.200
478.500, 0.214
478.600, 0.212
478.700, 0.217
478.800, 0.235
478.900, 0.233
479.000, 0.269
479.100, 0.250
479.200, 0.220
479.300, 0.260
479.400, 0.222
479.500, 0.197
479.600, 0.225
479.700, 0.223
479.800, 0.241
479.900, 0.214
480.000, 0.212
480.100, 0.193
480.200, 0.193
480.300, 0.180
480.400, 0.181
480.500, 0.194
480.600, 0.195
480.700, 0.201
480.800, 0.203
480.900, 0.209
481.000, 0.214
481.100, 0.186
481.200, 0.193
481.300, 0.194
481.400, 0.189
481.500, 0.202
481.600, 0.202
481.700, 0.227
481.800, 0.210
481.900, 0.240
482.000, 0.232
482.100, 0.208
482.200, 0.228
482.300, 0.208
482.400, 0.242
482.500, 0.222
482.600, 0.225
482.700, 0.219
482.800, 0.214
482.900, 0.205
483.000, 0.207
483.100, 0.204
483.200, 0.241
483.300, 0.209
483.400, 0.220
483.500, 0.223
483.600, 0.229
483.700, 0.256
483.800, 0.247
483.900, 0.240
484.000, 0.225
484.100, 0.223
484.200, 0.205
484.300, 0.209
484.400, 0.207
484.500, 0.203
484.600, 0.223
484.700, 0.212
484.800, 0.207
484.900, 0.223
485.000, 0.237
485.100, 0.233
485.200, 0.228
485.300, 0.224
485.400, 0.193
485.500, 0.205
485.600, 0.236
485.700, 0.228
485.800, 0.221
485.900, 0.228
486.000, 0.224
486.100, 0.234
486.200, 0.255
486.300, 0.269
486.400, 0.259
486.500, 0.273
486.600, 0.247
486.700, 0.243
486.800, 0.260
486.900, 0.237
487.000, 0.222
487.100, 0.209
487.200, 0.223
487.300, 0.212
487.400, 0.220
487.500, 0.257
487.600, 0.296
487.700, 0.239
487.800, 0.230
487.900, 0.229
488.000, 0.238
488.100, 0.224
488.200, 0.241
488.300, 0.212
488.400, 0.226
488.500, 0.223
488.600, 0.224
488.700, 0.242
488.800, 0.224
488.900, 0.219
489.000, 0.225
489.100, 0.205
489.200, 0.236
489.300, 0.204
489.400, 0.205
489.500, 0.222
489.600, 0.218
489.700, 0.210
489.800, 0.208
489.900, 0.205
490.000, 0.226
490.100, 0.259
490.200, 0.249
490.300, 0.248
490.400, 0.239
490.500, 0.247
490.600, 0.206
490.700, 0.246
490.800, 0.250
490.900, 0.215
491.000, 0.200
491.100, 0.198
491.200, 0.208
491.300, 0.193
491.400, 0.208
491.500, 0.221
491.600, 0.199
491.700, 0.225
491.800, 0.207
491.900, 0.218
492.000, 0.223
492.100, 0.206
492.200, 0.205
492.300, 0.220
492.400, 0.210
492.500, 0.205
492.600, 0.199
492.700, 0.198
492.800, 0.193
492.900, 0.197
493.000, 0.202
493.100, 0.191
493.200, 0.207
493.300, 0.199
493.400, 0.210
493.500, 0.202
493.600, 0.190
493.700, 0.179
493.800, 0.202
493.900, 0.185
494.000, 0.182
494.100, 0.209
494.200, 0.193
494.300, 0.175
494.400, 0.174
494.500, 0.184
494.600, 0.170
494.700, 0.190
494.800, 0.192
494.900, 0.189
495.000, 0.179
495.100, 0.203
495.200, 0.208
495.300, 0.189
495.400, 0.196
495.500, 0.199
495.600, 0.221
495.700, 0.199
495.800, 0.219
495.900, 0.222
496.000, 0.233
496.100, 0.205
496.200, 0.223
496.300, 0.219
496.400, 0.234
496.500, 0.230
496.600, 0.214
496.700, 0.214
496.800, 0.217
496.900, 0.238
497.000, 0.231
497.100, 0.227
497.200, 0.205
497.300, 0.214
497.400, 0.199
497.500, 0.217
497.600, 0.229
497.700, 0.254
497.800, 0.242
497.900, 0.249
498.000, 0.242
498.100, 0.229
498.200, 0.216
498.300, 0.195
498.400, 0.210
498.500, 0.241
498.600, 0.243
498.700, 0.218
498.800, 0.216
498.900, 0.234
499.000, 0.226
499.100, 0.214
499.200, 0.181
499.300, 0.219
499.400, 0.204
499.500, 0.213
499.600, 0.201
499.700, 0.193
499.800, 0.179
499.900, 0.206
500.000, 0.192
500.100, 0.180
500.200, 0.176
500.300, 0.208
500.400, 0.220
500.500, 0.237
500.600, 0.256
500.700, 0.266
500.800, 0.255
500.900, 0.231
501.000, 0.211
501.100, 0.211
501.200, 0.194
501.300, 0.185
501.400, 0.221
501.500, 0.207
501.600, 0.193
501.700, 0.211
501.800, 0.201
501.900, 0.191
502.000, 0.208
502.100, 0.243
502.200, 0.242
502.300, 0.231
502.400, 0.234
502.500, 0.242
502.600, 0.227
502.700, 0.228
502.800, 0.208
502.900, 0.209
503.000, 0.198
503.100, 0.204
503.200, 0.219
503.300, 0.227
503.400, 0.217
503.500, 0.242
503.600, 0.204
503.700, 0.250
503.800, 0.220
503.900, 0.211
504.000, 0.214
504.100, 0.244
504.200, 0.245
504.300, 0.229
504.400, 0.208
504.500, 0.196
504.600, 0.217
504.700, 0.210
504.800, 0.210
504.900, 0.227
505.000, 0.236
505.100, 0.251
505.200, 0.223
505.300, 0.241
505.400, 0.248
505.500, 0.213
505.600, 0.189
505.700, 0.192
505.800, 0.196
505.900, 0.200
506.000, 0.224
506.100, 0.230
506.200, 0.226
506.300, 0.204
506.400, 0.225
506.500, 0.200
506.600, 0.183
506.700, 0.193
506.800, 0.202
506.900, 0.203
507.000, 0.199
507.100, 0.198
507.200, 0.222
507.300, 0.220
507.400, 0.215
507.500, 0.231
507.600, 0.226
507.700, 0.228
507.800, 0.224
507.900, 0.213
508.000, 0.219
508.100, 0.216
508.200, 0.217
508.300, 0.217
508.400, 0.192
508.500, 0.192
508.600, 0.199
508.700, 0.187
508.800, 0.196
508.900, 0.197
509.000, 0.194
509.100, 0.201
509.200, 0.186
509.300, 0.189
509.400, 0.199
509.500, 0.192
509.600, 0.206
509.700, 0.178
509.800, 0.173
509.900, 0.199
510.000, 0.198
510.100, 0.231
510.200, 0.241
510.300, 0.237
510.400, 0.256
510.500, 0.243
510.600, 0.248
510.700, 0.245
510.800, 0.270
510.900, 0.255
511.000, 0.261
511.100, 0.253
511.200, 0.266
511.300, 0.256
511.400, 0.246
511.500, 0.262
511.600, 0.234
511.700, 0.240
511.800, 0.263
511.900, 0.253
512.000, 0.269
512.100, 0.250
512.200, 0.251
512.300, 0.254
512.400, 0.231
512.500, 0.233
512.600, 0.208
512.700, 0.213
512.800, 0.221
512.900, 0.224
513.000, 0.221
513.100, 0.229
513.200, 0.223
513.300, 0.218
513.400, 0.209
513.500, 0.195
513.600, 0.204
513.700, 0.204
513.800, 0.221
513.900, 0.219
514.000, 0.222
514.100, 0.216
514.200, 0.195
514.300, 0.204
514.400, 0.198
514.500, 0.185
514.600, 0.202
514.700, 0.205
514.800, 0.173
514.900, 0.231
515.000, 0.235
515.100, 0.218
515.200, 0.218
515.300, 0.200
515.400, 0.180
515.500, 0.197
515.600, 0.194
515.700, 0.202
515.800, 0.168
515.900, 0.207
516.000, 0.209
516.100, 0.211
516.200, 0.183
516.300, 0.186
516.400, 0.173
516.500, 0.209
516.600, 0.193
516.700, 0.202
516.800, 0.198
516.900, 0.223
517.000, 0.236
517.100, 0.210
517.200, 0.195
517.300, 0.205
517.400, 0.219
517.500, 0.202
517.600, 0.211
517.700, 0.212
517.800, 0.213
517.900, 0.185
518.000, 0.218
518.100, 0.231
518.200, 0.229
518.300, 0.227
518.400, 0.222
518.500, 0.216
518.600, 0.193
518.700, 0.214
518.800, 0.209
518.900, 0.220
519.000, 0.226
519.100, 0.226
519.200, 0.216
519.300, 0.205
519.400, 0.210
519.500, 0.253
519.600, 0.266
519.700, 0.253
519.800, 0.284
519.900, 0.262
520.000, 0.247
520.100, 0.240
520.200, 0.221
520.300, 0.223
520.400, 0.236
520.500, 0.230
520.600, 0.244
520.700, 0.214
520.800, 0.248
520.900, 0.245
521.000, 0.231
521.100, 0.233
521.200, 0.204
521.300, 0.197
521.400, 0.198
521.500, 0.230
521.600, 0.229
521.700, 0.275
521.800, 0.247
521.900, 0.206
522.000, 0.220
522.100, 0.228
522.200, 0.244
522.300, 0.257
522.400, 0.235
522.500, 0.207
522.600, 0.205
522.700, 0.197
522.800, 0.187
522.900, 0.209
523.000, 0.208
523.100, 0.211
523.200, 0.209
523.300, 0.222
523.400, 0.198
523.500, 0.200
523.600, 0.199
523.700, 0.220
523.800, 0.205
523.900, 0.212
524.000, 0.209
524.100, 0.204
524.200, 0.212
524.300, 0.218
524.400, 0.202
524.500, 0.205
524.600, 0.197
524.700, 0.192
524.800, 0.221
524.900, 0.213
525.000, 0.211
525.100, 0.202
525.200, 0.181
525.300, 0.170
525.400, 0.175
525.500, 0.195
525.600, 0.213
525.700, 0.218
525.800, 0.182
525.900, 0.217
526.000, 0.216
526.100, 0.211
526.200, 0.250
526.300, 0.243
526.400, 0.215
526.500, 0.223
526.600, 0.222
526.700, 0.239
526.800, 0.224
526.900, 0.271
527.000, 0.248
527.100, 0.246
527.200, 0.251
527.300, 0.245
527.400, 0.237
527.500, 0.205
527.600, 0.213
527.700, 0.243
527.800, 0.230
527.900, 0.248
528.000, 0.231
528.100, 0.247
528.200, 0.278
528.300, 0.241
528.400, 0.218
528.500, 0.244
528.600, 0.261
528.700, 0.293
528.800, 0.262
528.900, 0.254
529.000, 0.252
529.100, 0.255
529.200, 0.236
529.300, 0.218
529.400, 0.216
529.500, 0.214
529.600, 0.235
529.700, 0.220
529.800, 0.223
529.900, 0.230
530.000, 0.258
530.100, 0.246
530.200, 0.292
530.300, 0.279
530.400, 0.264
530.500, 0.262
530.600, 0.258
530.700, 0.264
530.800, 0.241
530.900, 0.235
531.000, 0.205
531.100, 0.195
531.200, 0.202
531.300, 0.216
531.400, 0.194
531.500, 0.210
531.600, 0.211
531.700, 0.274
531.800, 0.256
531.900, 0.226
532.000, 0.248
532.100, 0.236
532.200, 0.205
532.300, 0.231
532.400, 0.221
532.500, 0.202
532.600, 0.206
532.700, 0.195
532.800, 0.196
532.900, 0.221
533.000, 0.211
533.100, 0.206
533.200, 0.171
533.300, 0.212
533.400, 0.201
533.500, 0.201
533.600, 0.178
533.700, 0.195
533.800, 0.192
533.900, 0.196
534.000, 0.188
534.100, 0.211
534.200, 0.218
534.300, 0.181
534.400, 0.205
534.500, 0.196
534.600, 0.220
534.700, 0.215
534.800, 0.223
534.900, 0.192
535.000, 0.209
535.100, 0.196
535.200, 0.207
535.300, 0.206
535.400, 0.198
535.500, 0.186
535.600, 0.202
535.700, 0.213
535.800, 0.233
535.900, 0.206
536.000, 0.236
536.100, 0.244
536.200, 0.228
536.300, 0.199
536.400, 0.203
536.500, 0.215
536.600, 0.195
536.700, 0.191
536.800, 0.195
536.900, 0.191
537.000, 0.171
537.100, 0.195
537.200, 0.194
537.300, 0.177
537.400, 0.203
537.500, 0.193
537.600, 0.182
537.700, 0.183
537.800, 0.185
537.900, 0.182
538.000, 0.163
538.100, 0.189
538.200, 0.179
538.300, 0.170
538.400, 0.191
538.500, 0.181
538.600, 0.200
538.700, 0.198
538.800, 0.185
538.900, 0.229
539.000, 0.195
539.100, 0.185
539.200, 0.211
539.300, 0.199
539.400, 0.197
539.500, 0.191
539.600, 0.177
539.700, 0.185
539.800, 0.179
539.900, 0.165
540.000, 0.181
540.100, 0.178
540.200, 0.181
540.300, 0.184
540.400, 0.182
540.500, 0.208
540.600, 0.195
540.700, 0.195
540.800, 0.196
540.900, 0.193
541.000, 0.194
541.100, 0.204
541.200, 0.211
541.300, 0.204
541.400, 0.206
541.500, 0.215
541.600, 0.219
541.700, 0.233
541.800, 0.229
541.900, 0.239
542.000, 0.252
542.100, 0.224
542.200, 0.219
542.300, 0.251
542.400, 0.224
542.500, 0.241
542.600, 0.237
542.700, 0.227
542.800, 0.232
542.900, 0.222
543.000, 0.221
543.100, 0.225
543.200, 0.234
543.300, 0.221
543.400, 0.210
543.500, 0.236
543.600, 0.204
543.700, 0.231
543.800, 0.220
543.900, 0.211
544.000, 0.236
544.100, 0.211
544.200, 0.199
544.300, 0.207
544.400, 0.239
544.500, 0.194
544.600, 0.196
544.700, 0.196
544.800, 0.204
544.900, 0.190
545.000, 0.196
545.100, 0.207
545.200, 0.198
545.300, 0.221
545.400, 0.210
545.500, 0.197
545.600, 0.209
545.700, 0.205
545.800, 0.210
545.900, 0.215
546.000, 0.223
546.100, 0.238
546.200, 0.224
546.300, 0.188
546.400, 0.203
546.500, 0.201
546.600, 0.205
546.700, 0.196
546.800, 0.211
546.900, 0.203
547.000, 0.212
547.100, 0.222
547.200, 0.236
547.300, 0.211
547.400, 0.234
547.500, 0.229
547.600, 0.236
547.700, 0.221
547.800, 0.214
547.900, 0.210
548.000, 0.259
548.100, 0.223
548.200, 0.204
548.300, 0.207
548.400, 0.219
548.500, 0.243
548.600, 0.242
548.700, 0.211
548.800, 0.209
548.900, 0.188
549.000, 0.203
549.100, 0.188
549.200, 0.220
549.300, 0.216
549.400, 0.204
549.500, 0.213
549.600, 0.211
549.700, 0.214
549.800, 0.221
549.900, 0.221
550.000, 0.208
550.100, 0.191
550.200, 0.189
550.300, 0.199
550.400, 0.199
550.500, 0.186
550.600, 0.189
550.700, 0.200
550.800, 0.192
550.900, 0.196
551.000, 0.228
551.100, 0.236
551.200, 0.219
551.300, 0.189
551.400, 0.185
551.500, 0.183
551.600, 0.194
551.700, 0.201
551.800, 0.210
551.900, 0.221
552.000, 0.208
552.100, 0.192
552.200, 0.203
552.300, 0.192
552.400, 0.185
552.500, 0.207
552.600, 0.197
552.700, 0.198
552.800, 0.189
552.900, 0.209
553.000, 0.174
553.100, 0.177
553.200, 0.180
553.300, 0.182
553.400, 0.189
553.500, 0.211
553.600, 0.200
553.700, 0.214
553.800, 0.192
553.900, 0.183
554.000, 0.178
554.100, 0.185
554.200, 0.179
554.300, 0.194
554.400, 0.194
554.500, 0.201
554.600, 0.180
554.700, 0.199
554.800, 0.170
554.900, 0.196
555.000, 0.187
555.100, 0.190
555.200, 0.190
555.300, 0.230
555.400, 0.192
555.500, 0.171
555.600, 0.191
555.700, 0.196
555.800, 0.197
555.900, 0.181
556.000, 0.177
556.100, 0.172
556.200, 0.185
556.300, 0.180
556.400, 0.187
556.500, 0.176
556.600, 0.168
556.700, 0.175
556.800, 0.194
556.900, 0.204
557.000, 0.193
557.100, 0.189
557.200, 0.209
557.300, 0.195
557.400, 0.186
557.500, 0.172
557.600, 0.184
557.700, 0.180
557.800, 0.189
557.900, 0.173
558.000, 0.189
558.100, 0.216
558.200, 0.196
558.300, 0.216
558.400, 0.207
558.500, 0.201
558.600, 0.205
558.700, 0.179
558.800, 0.226
558.900, 0.205
559.000, 0.203
559.100, 0.191
559.200, 0.196
559.300, 0.224
559.400, 0.202
559.500, 0.203
559.600, 0.196
559.700, 0.189
559.800, 0.204
559.900, 0.194
560.000, 0.215
560.100, 0.195
560.200, 0.209
560.300, 0.184
560.400, 0.199
560.500, 0.204
560.600, 0.180
560.700, 0.196
560.800, 0.187
560.900, 0.207
561.000, 0.196
561.100, 0.212
561.200, 0.182
561.300, 0.199
561.400, 0.182
561.500, 0.196
561.600, 0.212
561.700, 0.209
561.800, 0.212
561.900, 0.213
562.000, 0.219
562.100, 0.191
562.200, 0.221
562.300, 0.217
562.400, 0.211
562.500, 0.204
562.600, 0.193
562.700, 0.217
562.800, 0.217
562.900, 0.189
563.000, 0.174
563.100, 0.202
563.200, 0.205
563.300, 0.201
563.400, 0.175
563.500, 0.185
563.600, 0.196
563.700, 0.210
563.800, 0.199
563.900, 0.198
564.000, 0.217
564.100, 0.199
564.200, 0.183
564.300, 0.167
564.400, 0.205
564.500, 0.199
564.600, 0.211
564.700, 0.197
564.800, 0.207
564.900, 0.217
565.000, 0.189
565.100, 0.190
565.200, 0.179
565.300, 0.175
565.400, 0.176
565.500, 0.181
565.600, 0.175
565.700, 0.181
565.800, 0.179
565.900, 0.183
566.000, 0.211
566.100, 0.209
566.200, 0.195
566.300, 0.187
566.400, 0.200
566.500, 0.206
566.600, 0.172
566.700, 0.209
566.800, 0.215
566.900, 0.186
567.000, 0.194
567.100, 0.193
567.200, 0.189
567.300, 0.191
567.400, 0.191
567.500, 0.175
567.600, 0.212
567.700, 0.178
567.800, 0.157
567.900, 0.206
568.000, 0.185
568.100, 0.192
568.200, 0.181
568.300, 0.196
568.400, 0.180
568.500, 0.190
568.600, 0.199
568.700, 0.181
568.800, 0.206
568.900, 0.190
569.000, 0.165
569.100, 0.194
569.200, 0.203
569.300, 0.205
569.400, 0.193
569.500, 0.183
569.600, 0.177
569.700, 0.170
569.800, 0.192
569.900, 0.157
570.000, 0.171
570.100, 0.171
570.200, 0.200
570.300, 0.178
570.400, 0.194
570.500, 0.183
570.600, 0.193
570.700, 0.200
570.800, 0.194
570.900, 0.197
571.000, 0.192
571.100, 0.192
571.200, 0.185
571.300, 0.186
571.400, 0.191
571.500, 0.186
571.600, 0.174
571.700, 0.161
571.800, 0.177
571.900, 0.161
572.000, 0.188
572.100, 0.157
572.200, 0.157
572.300, 0.170
572.400, 0.169
572.500, 0.162
572.600, 0.164
572.700, 0.149
572.800, 0.185
572.900, 0.162
573.000, 0.148
573.100, 0.178
573.200, 0.180
573.300, 0.159
573.400, 0.162
573.500, 0.176
573.600, 0.157
573.700, 0.160
573.800, 0.167
573.900, 0.150
574.000, 0.154
574.100, 0.180
574.200, 0.186
574.300, 0.179
574.400, 0.160
574.500, 0.169
574.600, 0.155
574.700, 0.167
574.800, 0.179
574.900, 0.160
575.000, 0.169
575.100, 0.155
575.200, 0.142
575.300, 0.163
575.400, 0.172
575.500, 0.166
575.600, 0.173
575.700, 0.185
575.800, 0.172
575.900, 0.167
576.000, 0.168
576.100, 0.179
576.200, 0.169
576.300, 0.181
576.400, 0.166
576.500, 0.158
576.600, 0.174
576.700, 0.186
576.800, 0.187
576.900, 0.179
577.000, 0.175
577.100, 0.181
577.200, 0.202
577.300, 0.202
577.400, 0.194
577.500, 0.213
577.600, 0.201
577.700, 0.177
577.800, 0.174
577.900, 0.190
578.000, 0.197
578.100, 0.205
578.200, 0.217
578.300, 0.198
578.400, 0.220
578.500, 0.193
578.600, 0.181
578.700, 0.162
578.800, 0.180
578.900, 0.205
579.000, 0.184
579.100, 0.195
579.200, 0.200
579.300, 0.177
579.400, 0.185
579.500, 0.195
579.600, 0.215
579.700, 0.179
579.800, 0.185
579.900, 0.165
580.000, 0.200
580.100, 0.203
580.200, 0.208
580.300, 0.225
580.400, 0.219
580.500, 0.209
580.600, 0.222
580.700, 0.208
580.800, 0.244
580.900, 0.264
581.000, 0.240
581.100, 0.244
581.200, 0.236
581.300, 0.234
581.400, 0.189
581.500, 0.201
581.600, 0.200
581.700, 0.195
581.800, 0.208
581.900, 0.222
582.000, 0.217
582.100, 0.238
582.200, 0.218
582.300, 0.190
582.400, 0.186
582.500, 0.199
582.600, 0.228
582.700, 0.194
582.800, 0.179
582.900, 0.181
583.000, 0.187
583.100, 0.198
583.200, 0.192
583.300, 0.175
583.400, 0.203
583.500, 0.191
583.600, 0.165
583.700, 0.190
583.800, 0.196
583.900, 0.227
584.000, 0.209
584.100, 0.203
584.200, 0.204
584.300, 0.172
584.400, 0.213
584.500, 0.205
584.600, 0.196
584.700, 0.168
584.800, 0.194
584.900, 0.210
585.000, 0.214
585.100, 0.169
585.200, 0.191
585.300, 0.180
585.400, 0.181
585.500, 0.181
585.600, 0.188
585.700, 0.191
585.800, 0.209
585.900, 0.209
586.000, 0.190
586.100, 0.176
586.200, 0.202
586.300, 0.197
586.400, 0.217
586.500, 0.177
586.600, 0.184
586.700, 0.169
586.800, 0.201
586.900, 0.205
587.000, 0.190
587.100, 0.203
587.200, 0.213
587.300, 0.230
587.400, 0.235
587.500, 0.229
587.600, 0.231
587.700, 0.253
587.800, 0.212
587.900, 0.244
588.000, 0.245
588.100, 0.211
588.200, 0.237
588.300, 0.252
588.400, 0.258
588.500, 0.258
588.600, 0.250
588.700, 0.232
588.800, 0.227
588.900, 0.238
589.000, 0.205
589.100, 0.224
589.200, 0.235
589.300, 0.213
589.400, 0.239
589.500, 0.211
589.600, 0.191
589.700, 0.204
589.800, 0.233
589.900, 0.202
590.000, 0.201
590.100, 0.228
590.200, 0.200
590.300, 0.217
590.400, 0.202
590.500, 0.226
590.600, 0.216
590.700, 0.225
590.800, 0.231
590.900, 0.209
591.000, 0.192
591.100, 0.182
591.200, 0.167
591.300, 0.187
591.400, 0.177
591.500, 0.193
591.600, 0.222
591.700, 0.219
591.800, 0.225
591.900, 0.214
592.000, 0.220
592.100, 0.192
592.200, 0.218
592.300, 0.195
592.400, 0.192
592.500, 0.188
592.600, 0.196
592.700, 0.213
592.800, 0.206
592.900, 0.193
593.000, 0.181
593.100, 0.196
593.200, 0.204
593.300, 0.198
593.400, 0.218
593.500, 0.226
593.600, 0.203
593.700, 0.204
593.800, 0.198
593.900, 0.195
594.000, 0.196
594.100, 0.203
594.200, 0.206
594.300, 0.183
594.400, 0.187
594.500, 0.199
594.600, 0.208
594.700, 0.199
594.800, 0.174
594.900, 0.168
595.000, 0.228
595.100, 0.207
595.200, 0.189
595.300, 0.194
595.400, 0.220
595.500, 0.205
595.600, 0.194
595.700, 0.175
595.800, 0.182
595.900, 0.190
596.000, 0.185
596.100, 0.207
596.200, 0.185
596.300, 0.213
596.400, 0.221
596.500, 0.200
596.600, 0.176
596.700, 0.196
596.800, 0.177
596.900, 0.168
597.000, 0.197
597.100, 0.179
597.200, 0.184
597.300, 0.186
597.400, 0.200
597.500, 0.229
597.600, 0.224
597.700, 0.193
597.800, 0.178
597.900, 0.188
598.000, 0.207
598.100, 0.235
598.200, 0.255
598.300, 0.211
598.400, 0.203
598.500, 0.179
598.600, 0.188
598.700, 0.201
598.800, 0.217
598.900, 0.194
599.000, 0.190
599.100, 0.190
599.200, 0.205
599.300, 0.208
599.400, 0.186
599.500, 0.182
599.600, 0.202
599.700, 0.189
599.800, 0.187
599.900, 0.204
600.000, 0.182
600.100, 0.184
600.200, 0.182
600.300, 0.198
600.400, 0.203
600.500, 0.197
600.600, 0.226
600.700, 0.248
600.800, 0.238
600.900, 0.252
601.000, 0.209
601.100, 0.225
601.200, 0.215
601.300, 0.203
601.400, 0.221
601.500, 0.204
601.600, 0.240
601.700, 0.250
601.800, 0.260
601.900, 0.269
602.000, 0.254
602.100, 0.221
602.200, 0.220
602.300, 0.230
602.400, 0.229
602.500, 0.192
602.600, 0.219
602.700, 0.250
602.800, 0.218
602.900, 0.249
603.000, 0.236
603.100, 0.249
603.200, 0.206
603.300, 0.205
603.400, 0.222
603.500, 0.198
603.600, 0.199
603.700, 0.209
603.800, 0.230
603.900, 0.214
604.000, 0.208
604.100, 0.201
604.200, 0.237
604.300, 0.216
604.400, 0.205
604.500, 0.196
604.600, 0.214
604.700, 0.212
604.800, 0.225
604.900, 0.239
605.000, 0.212
605.100, 0.233
605.200, 0.197
605.300, 0.216
605.400, 0.208
605.500, 0.200
605.600, 0.192
605.700, 0.191
605.800, 0.202
605.900, 0.237
606.000, 0.197
606.100, 0.203
606.200, 0.211
606.300, 0.205
606.400, 0.220
606.500, 0.183
606.600, 0.208
606.700, 0.181
606.800, 0.193
606.900, 0.184
607.000, 0.208
607.100, 0.192
607.200, 0.194
607.300, 0.181
607.400, 0.181
607.500, 0.172
607.600, 0.164
607.700, 0.174
607.800, 0.188
607.900, 0.194
608.000, 0.208
608.100, 0.209
608.200, 0.220
608.300, 0.218
608.400, 0.207
608.500, 0.230
608.600, 0.199
608.700, 0.211
608.800, 0.199
608.900, 0.201
609.000, 0.176
609.100, 0.185
609.200, 0.196
609.300, 0.195
609.400, 0.173
609.500, 0.196
609.600, 0.213
609.700, 0.204
609.800, 0.197
609.900, 0.207
610.000, 0.212
610.100, 0.214
610.200, 0.219
610.300, 0.213
610.400, 0.187
610.500, 0.190
610.600, 0.186
610.700, 0.214
610.800, 0.214
610.900, 0.210
611.000, 0.186
611.100, 0.191
611.200, 0.196
611.300, 0.198
611.400, 0.186
611.500, 0.212
611.600, 0.225
611.700, 0.200
611.800, 0.215
611.900, 0.189
612.000, 0.189
612.100, 0.200
612.200, 0.193
612.300, 0.172
612.400, 0.165
612.500, 0.198
612.600, 0.202
612.700, 0.195
612.800, 0.162
612.900, 0.196
613.000, 0.199
613.100, 0.187
613.200, 0.186
613.300, 0.198
613.400, 0.185
613.500, 0.196
613.600, 0.207
613.700, 0.189
613.800, 0.203
613.900, 0.185
614.000, 0.193
614.100, 0.191
614.200, 0.192
614.300, 0.224
614.400, 0.220
614.500, 0.230
614.600, 0.229
614.700, 0.212
614.800, 0.200
614.900, 0.199
615.000, 0.196
615.100, 0.190
615.200, 0.197
615.300, 0.178
615.400, 0.166
615.500, 0.163
615.600, 0.176
615.700, 0.175
615.800, 0.204
615.900, 0.192
616.000, 0.193
616.100, 0.213
616.200, 0.202
616.300, 0.199
616.400, 0.194
616.500, 0.195
616.600, 0.154
616.700, 0.161
616.800, 0.167
616.900, 0.155
617.000, 0.173
617.100, 0.183
617.200, 0.167
617.300, 0.150
617.400, 0.189
617.500, 0.195
617.600, 0.166
617.700, 0.171
617.800, 0.182
617.900, 0.204
618.000, 0.169
618.100, 0.183
618.200, 0.152
618.300, 0.154
618.400, 0.183
618.500, 0.169
618.600, 0.180
618.700, 0.163
618.800, 0.166
618.900, 0.168
619.000, 0.154
619.100, 0.197
619.200, 0.180
619.300, 0.195
619.400, 0.184
619.500, 0.176
619.600, 0.205
619.700, 0.176
619.800, 0.187
619.900, 0.170
620.000, 0.192
620.100, 0.204
620.200, 0.200
620.300, 0.178
620.400, 0.198
620.500, 0.180
620.600, 0.175
620.700, 0.171
620.800, 0.163
620.900, 0.160
621.000, 0.151
621.100, 0.197
621.200, 0.207
621.300, 0.181
621.400, 0.184
621.500, 0.187
621.600, 0.180
621.700, 0.167
621.800, 0.162
621.900, 0.176
622.000, 0.162
622.100, 0.143
622.200, 0.155
622.300, 0.163
622.400, 0.164
622.500, 0.168
622.600, 0.178
622.700, 0.173
622.800, 0.173
622.900, 0.187
623.000, 0.221
623.100, 0.178
623.200, 0.187
623.300, 0.185
623.400, 0.174
623.500, 0.193
623.600, 0.178
623.700, 0.165
623.800, 0.176
623.900, 0.192
624.000, 0.180
624.100, 0.185
624.200, 0.163
624.300, 0.159
624.400, 0.150
624.500, 0.166
624.600, 0.171
624.700, 0.185
624.800, 0.191
624.900, 0.190
625.000, 0.193
625.100, 0.192
625.200, 0.208
625.300, 0.204
625.400, 0.199
625.500, 0.201
625.600, 0.191
625.700, 0.194
625.800, 0.175
625.900, 0.180
626.000, 0.178
626.100, 0.176
626.200, 0.148
626.300, 0.166
626.400, 0.165
626.500, 0.185
626.600, 0.179
626.700, 0.200
626.800, 0.215
626.900, 0.220
627.000, 0.198
627.100, 0.160
627.200, 0.195
627.300, 0.187
627.400, 0.168
627.500, 0.160
627.600, 0.169
627.700, 0.166
627.800, 0.169
627.900, 0.154
628.000, 0.166
628.100, 0.139
628.200, 0.159
628.300, 0.167
628.400, 0.176
628.500, 0.183
628.600, 0.174
628.700, 0.169
628.800, 0.173
628.900, 0.187
629.000, 0.185
629.100, 0.207
629.200, 0.202
629.300, 0.193
629.400, 0.213
629.500, 0.195
629.600, 0.196
629.700, 0.178
629.800, 0.197
629.900, 0.187
630.000, 0.187
630.100, 0.194
630.200, 0.206
630.300, 0.247
630.400, 0.195
630.500, 0.183
630.600, 0.191
630.700, 0.188
630.800, 0.200
630.900, 0.200
631.000, 0.230
631.100, 0.233
631.200, 0.212
631.300, 0.208
631.400, 0.185
631.500, 0.190
631.600, 0.173
631.700, 0.166
631.800, 0.173
631.900, 0.186
632.000, 0.187
632.100, 0.221
632.200, 0.205
632.300, 0.242
632.400, 0.225
632.500, 0.218
632.600, 0.227
632.700, 0.210
632.800, 0.199
632.900, 0.218
633.000, 0.205
633.100, 0.257
633.200, 0.220
633.300, 0.219
633.400, 0.208
633.500, 0.219
633.600, 0.197
633.700, 0.204
633.800, 0.195
633.900, 0.192
634.000, 0.207
634.100, 0.199
634.200, 0.201
634.300, 0.211
634.400, 0.203
634.500, 0.175
634.600, 0.187
634.700, 0.204
634.800, 0.212
634.900, 0.254
635.000, 0.206
635.100, 0.253
635.200, 0.254
635.300, 0.217
635.400, 0.207
635.500, 0.212
635.600, 0.207
635.700, 0.222
635.800, 0.208
635.900, 0.198
636.000, 0.207
636.100, 0.238
636.200, 0.249
636.300, 0.186
636.400, 0.218
636.500, 0.213
636.600, 0.228
636.700, 0.249
636.800, 0.224
636.900, 0.234
637.000, 0.232
637.100, 0.229
637.200, 0.239
637.300, 0.218
637.400, 0.189
637.500, 0.184
637.600, 0.186
637.700, 0.210
637.800, 0.198
637.900, 0.193
638.000, 0.189
638.100, 0.186
638.200, 0.204
638.300, 0.209
638.400, 0.213
638.500, 0.200
638.600, 0.194
638.700, 0.182
638.800, 0.192
638.900, 0.194
639.000, 0.197
639.100, 0.185
639.200, 0.202
639.300, 0.233
639.400, 0.224
639.500, 0.222
639.600, 0.233
639.700, 0.214
639.800, 0.190
639.900, 0.194
640.000, 0.192
640.100, 0.171
640.200, 0.203
640.300, 0.227
640.400, 0.189
640.500, 0.187
640.600, 0.206
640.700, 0.208
640.800, 0.197
640.900, 0.204
641.000, 0.171
641.100, 0.169
641.200, 0.200
641.300, 0.150
641.400, 0.171
641.500, 0.174
641.600, 0.179
641.700, 0.170
641.800, 0.182
641.900, 0.163
642.000, 0.176
642.100, 0.176
642.200, 0.164
642.300, 0.189
642.400, 0.160
642.500, 0.158
642.600, 0.167
642.700, 0.175
642.800, 0.188
642.900, 0.187
643.000, 0.207
643.100, 0.228
643.200, 0.221
643.300, 0.216
643.400, 0.229
643.500, 0.205
643.600, 0.200
643.700, 0.233
643.800, 0.232
643.900, 0.195
644.000, 0.212
644.100, 0.208
644.200, 0.187
644.300, 0.158
644.400, 0.152
644.500, 0.171
644.600, 0.179
644.700, 0.168
644.800, 0.162
644.900, 0.182
645.000, 0.166
645.100, 0.181
645.200, 0.176
645.300, 0.187
645.400, 0.183
645.500, 0.194
645.600, 0.192
645.700, 0.185
645.800, 0.221
645.900, 0.197
646.000, 0.210
646.100, 0.200
646.200, 0.216
646.300, 0.189
646.400, 0.153
646.500, 0.176
646.600, 0.202
646.700, 0.203
646.800, 0.205
646.900, 0.187
647.000, 0.211
647.100, 0.205
647.200, 0.222
647.300, 0.225
647.400, 0.211
647.500, 0.228
647.600, 0.212
647.700, 0.207
647.800, 0.222
647.900, 0.238
648.000, 0.232
648.100, 0.212
648.200, 0.250
648.300, 0.253
648.400, 0.220
648.500, 0.217
648.600, 0.229
648.700, 0.226
648.800, 0.222
648.900, 0.228
649.000, 0.298
649.100, 0.282
649.200, 0.243
649.300, 0.267
649.400, 0.284
649.500, 0.301
649.600, 0.266
649.700, 0.245
649.800, 0.252
649.900, 0.286
650.000, 0.246
650.100, 0.270
650.200, 0.298
650.300, 0.289
650.400, 0.291
650.500, 0.269
650.600, 0.265
650.700, 0.234
650.800, 0.229
650.900, 0.258
651.000, 0.245
651.100, 0.237
651.200, 0.233
651.300, 0.226
651.400, 0.243
651.500, 0.205
651.600, 0.226
651.700, 0.219
651.800, 0.199
651.900, 0.181
652.000, 0.160
652.100, 0.182
652.200, 0.183
652.300, 0.199
652.400, 0.204
652.500, 0.185
652.600, 0.191
652.700, 0.219
652.800, 0.223
652.900, 0.242
653.000, 0.221
653.100, 0.229
653.200, 0.205
653.300, 0.216
653.400, 0.220
653.500, 0.231
653.600, 0.222
653.700, 0.204
653.800, 0.186
653.900, 0.218
654.000, 0.211
654.100, 0.236
654.200, 0.249
654.300, 0.236
654.400, 0.241
654.500, 0.202
654.600, 0.208
654.700, 0.193
654.800, 0.192
654.900, 0.208
655.000, 0.209
655.100, 0.232
655.200, 0.247
655.300, 0.211
655.400, 0.218
655.500, 0.208
655.600, 0.220
655.700, 0.220
655.800, 0.227
655.900, 0.178
656.000, 0.222
656.100, 0.214
656.200, 0.230
656.300, 0.228
656.400, 0.172
656.500, 0.189
656.600, 0.179
656.700, 0.182
656.800, 0.188
656.900, 0.199
657.000, 0.195
657.100, 0.169
657.200, 0.185
657.300, 0.164
657.400, 0.177
657.500, 0.163
657.600, 0.168
657.700, 0.155
657.800, 0.176
657.900, 0.167
658.000, 0.167
658.100, 0.191
658.200, 0.148
658.300, 0.173
658.400, 0.149
658.500, 0.148
658.600, 0.173
658.700, 0.153
658.800, 0.147
658.900, 0.199
659.000, 0.185
659.100, 0.211
659.200, 0.224
659.300, 0.242
659.400, 0.257
659.500, 0.206
659.600, 0.200
659.700, 0.198
659.800, 0.201
659.900, 0.189
660.000, 0.174
660.100, 0.164
660.200, 0.173
660.300, 0.178
660.400, 0.162
660.500, 0.152
660.600, 0.172
660.700, 0.172
660.800, 0.183
660.900, 0.204
661.000, 0.196
661.100, 0.184
661.200, 0.199
661.300, 0.195
661.400, 0.191
661.500, 0.186
661.600, 0.171
661.700, 0.175
661.800, 0.190
661.900, 0.196
662.000, 0.173
662.100, 0.189
662.200, 0.193
662.300, 0.181
662.400, 0.200
662.500, 0.203
662.600, 0.179
662.700, 0.206
662.800, 0.186
662.900, 0.184
663.000, 0.187
663.100, 0.202
663.200, 0.221
663.300, 0.199
663.400, 0.187
663.500, 0.199
663.600, 0.227
663.700, 0.178
663.800, 0.189
663.900, 0.176
664.000, 0.183
664.100, 0.189
664.200, 0.196
664.300, 0.181
664.400, 0.182
664.500, 0.191
664.600, 0.186
664.700, 0.205
664.800, 0.202
664.900, 0.173
665.000, 0.174
665.100, 0.183
665.200, 0.194
665.300, 0.169
665.400, 0.190
665.500, 0.182
665.600, 0.201
665.700, 0.197
665.800, 0.193
665.900, 0.181
666.000, 0.188
666.100, 0.185
666.200, 0.202
666.300, 0.181
666.400, 0.197
666.500, 0.190
666.600, 0.183
666.700, 0.184
666.800, 0.179
666.900, 0.198
667.000, 0.194
667.100, 0.196
667.200, 0.169
667.300, 0.198
667.400, 0.186
667.500, 0.185
667.600, 0.179
667.700, 0.227
667.800, 0.221
667.900, 0.190
668.000, 0.192
668.100, 0.193
668.200, 0.173
668.300, 0.181
668.400, 0.194
668.500, 0.191
668.600, 0.213
668.700, 0.213
668.800, 0.215
668.900, 0.217
669.000, 0.213
669.100, 0.210
669.200, 0.206
669.300, 0.220
669.400, 0.213
669.500, 0.183
669.600, 0.176
669.700, 0.184
669.800, 0.187
669.900, 0.201
670.000, 0.181
670.100, 0.201
670.200, 0.198
670.300, 0.195
670.400, 0.222
670.500, 0.217
670.600, 0.218
670.700, 0.211
670.800, 0.195
670.900, 0.179
671.000, 0.216
671.100, 0.204
671.200, 0.194
671.300, 0.206
671.400, 0.196
671.500, 0.234
671.600, 0.204
671.700, 0.227
671.800, 0.199
671.900, 0.209
672.000, 0.218
672.100, 0.220
672.200, 0.222
672.300, 0.202
672.400, 0.187
672.500, 0.199
672.600, 0.205
672.700, 0.211
672.800, 0.200
672.900, 0.174
673.000, 0.199
673.100, 0.207
673.200, 0.227
673.300, 0.181
673.400, 0.198
673.500, 0.186
673.600, 0.191
673.700, 0.205
673.800, 0.200
673.900, 0.226
674.000, 0.215
674.100, 0.236
674.200, 0.228
674.300, 0.218
674.400, 0.206
674.500, 0.195
674.600, 0.196
674.700, 0.194
674.800, 0.208
674.900, 0.198
675.000, 0.192
675.100, 0.202
675.200, 0.191
675.300, 0.215
675.400, 0.186
675.500, 0.196
675.600, 0.176
675.700, 0.197
675.800, 0.193
675.900, 0.193
676.000, 0.175
676.100, 0.194
676.200, 0.196
676.300, 0.188
676.400, 0.188
676.500, 0.179
676.600, 0.185
676.700, 0.185
676.800, 0.170
676.900, 0.174
677.000, 0.164
677.100, 0.203
677.200, 0.183
677.300, 0.190
677.400, 0.171
677.500, 0.181
677.600, 0.190
677.700, 0.188
677.800, 0.188
677.900, 0.193
678.000, 0.185
678.100, 0.191
678.200, 0.195
678.300, 0.198
678.400, 0.196
678.500, 0.213
678.600, 0.219
678.700, 0.221
678.800, 0.194
678.900, 0.199
679.000, 0.195
679.100, 0.191
679.200, 0.207
679.300, 0.203
679.400, 0.199
679.500, 0.210
679.600, 0.190
679.700, 0.175
679.800, 0.172
679.900, 0.169
680.000, 0.198
680.100, 0.170
680.200, 0.188
680.300, 0.182
680.400, 0.189
680.500, 0.171
680.600, 0.180
680.700, 0.202
680.800, 0.213
680.900, 0.214
681.000, 0.210
681.100, 0.202
681.200, 0.188
681.300, 0.181
681.400, 0.216
681.500, 0.218
681.600, 0.199
681.700, 0.204
681.800, 0.197
681.900, 0.220
682.000, 0.214
682.100, 0.236
682.200, 0.211
682.300, 0.200
682.400, 0.196
682.500, 0.197
682.600, 0.203
682.700, 0.198
682.800, 0.189
682.900, 0.190
683.000, 0.186
683.100, 0.183
683.200, 0.185
683.300, 0.196
683.400, 0.196
683.500, 0.205
683.600, 0.192
683.700, 0.211
683.800, 0.198
683.900, 0.192
684.000, 0.206
684.100, 0.189
684.200, 0.200
684.300, 0.190
684.400, 0.162
684.500, 0.183
684.600, 0.200
684.700, 0.199
684.800, 0.183
684.900, 0.177
685.000, 0.186
685.100, 0.181
685.200, 0.185
685.300, 0.209
685.400, 0.219
685.500, 0.206
685.600, 0.227
685.700, 0.222
685.800, 0.216
685.900, 0.215
686.000, 0.192
686.100, 0.174
686.200, 0.185
686.300, 0.178
686.400, 0.228
686.500, 0.214
686.600, 0.228
686.700, 0.209
686.800, 0.200
686.900, 0.204
687.000, 0.211
687.100, 0.189
687.200, 0.184
687.300, 0.195
687.400, 0.196
687.500, 0.200
687.600, 0.218
687.700, 0.212
687.800, 0.190
687.900, 0.181
688.000, 0.200
688.100, 0.188
688.200, 0.202
688.300, 0.193
688.400, 0.211
688.500, 0.198
688.600, 0.223
688.700, 0.243
688.800, 0.203
688.900, 0.183
689.000, 0.204
689.100, 0.205
689.200, 0.189
689.300, 0.181
689.400, 0.167
689.500, 0.213
689.600, 0.214
689.700, 0.232
689.800, 0.238
689.900, 0.226
690.000, 0.205
690.100, 0.216
690.200, 0.240
690.300, 0.218
690.400, 0.221
690.500, 0.207
690.600, 0.248
690.700, 0.221
690.800, 0.217
690.900, 0.199
691.000, 0.183
691.100, 0.185
691.200, 0.175
691.300, 0.175
691.400, 0.191
691.500, 0.212
691.600, 0.203
691.700, 0.164
691.800, 0.185
691.900, 0.236
692.000, 0.188
692.100, 0.225
692.200, 0.228
692.300, 0.209
692.400, 0.222
692.500, 0.187
692.600, 0.185
692.700, 0.176
692.800, 0.199
692.900, 0.198
693.000, 0.203
693.100, 0.200
693.200, 0.201
693.300, 0.210
693.400, 0.202
693.500, 0.205
693.600, 0.194
693.700, 0.213
693.800, 0.202
693.900, 0.234
694.000, 0.204
694.100, 0.206
694.200, 0.225
694.300, 0.228
694.400, 0.206
694.500, 0.211
694.600, 0.196
694.700, 0.169
694.800, 0.209
694.900, 0.223
695.000, 0.227
695.100, 0.228
695.200, 0.227
695.300, 0.202
695.400, 0.211
695.500, 0.184
695.600, 0.174
695.700, 0.204
695.800, 0.176
695.900, 0.194
696.000, 0.212
696.100, 0.225
696.200, 0.232
696.300, 0.185
696.400, 0.200
696.500, 0.196
696.600, 0.191
696.700, 0.190
696.800, 0.197
696.900, 0.191
697.000, 0.191
697.100, 0.171
697.200, 0.195
697.300, 0.189
697.400, 0.176
697.500, 0.184
697.600, 0.208
697.700, 0.185
697.800, 0.183
697.900, 0.197
698.000, 0.190
698.100, 0.175
698.200, 0.212
698.300, 0.193
698.400, 0.194
698.500, 0.191
698.600, 0.214
698.700, 0.241
698.800, 0.234
698.900, 0.225
699.000, 0.199
699.100, 0.207
699.200, 0.195
699.300, 0.204
699.400, 0.154
699.500, 0.186
699.600, 0.191
699.700, 0.159
699.800, 0.182
699.900, 0.188
700.000, 0.201
700.100, 0.197
700.200, 0.206
700.300, 0.210
700.400, 0.229
700.500, 0.208
700.600, 0.197
700.700, 0.197
700.800, 0.213
700.900, 0.231
701.000, 0.203
701.100, 0.208
701.200, 0.208
701.300, 0.231
701.400, 0.199
701.500, 0.207
701.600, 0.198
701.700, 0.181
701.800, 0.189
701.900, 0.179
702.000, 0.194
702.100, 0.191
702.200, 0.195
702.300, 0.212
702.400, 0.205
702.500, 0.205
702.600, 0.211
702.700, 0.214
702.800, 0.211
702.900, 0.201
703.000, 0.202
703.100, 0.239
703.200, 0.208
703.300, 0.217
703.400, 0.209
703.500, 0.184
703.600, 0.186
703.700, 0.203
703.800, 0.200
703.900, 0.204
704.000, 0.216
704.100, 0.190
704.200, 0.209
704.300, 0.192
704.400, 0.161
704.500, 0.176
704.600, 0.189
704.700, 0.220
704.800, 0.213
704.900, 0.200
705.000, 0.199
705.100, 0.181
705.200, 0.202
705.300, 0.189
705.400, 0.191
705.500, 0.180
705.600, 0.171
705.700, 0.178
705.800, 0.213
705.900, 0.210
706.000, 0.198
706.100, 0.195
706.200, 0.258
706.300, 0.218
706.400, 0.175
706.500, 0.207
706.600, 0.199
706.700, 0.208
706.800, 0.207
706.900, 0.200
707.000, 0.216
707.100, 0.212
707.200, 0.211
707.300, 0.189
707.400, 0.191
707.500, 0.193
707.600, 0.218
707.700, 0.209
707.800, 0.215
707.900, 0.208
708.000, 0.202
708.100, 0.198
708.200, 0.186
708.300, 0.189
708.400, 0.172
708.500, 0.212
708.600, 0.212
708.700, 0.187
708.800, 0.186
708.900, 0.195
709.000, 0.198
709.100, 0.218
709.200, 0.201
709.300, 0.205
709.400, 0.181
709.500, 0.179
709.600, 0.188
709.700, 0.183
709.800, 0.175
709.900, 0.184
710.000, 0.192
710.100, 0.218
710.200, 0.187
710.300, 0.200
710.400, 0.230
710.500, 0.188
710.600, 0.186
710.700, 0.215
710.800, 0.211
710.900, 0.216
711.000, 0.192
711.100, 0.185
711.200, 0.192
711.300, 0.175
711.400, 0.159
711.500, 0.179
711.600, 0.184
711.700, 0.193
711.800, 0.191
711.900, 0.198
712.000, 0.209
712.100, 0.190
712.200, 0.200
712.300, 0.199
712.400, 0.196
712.500, 0.197
712.600, 0.174
712.700, 0.189
712.800, 0.190
712.900, 0.229
713.000, 0.184
713.100, 0.201
713.200, 0.228
713.300, 0.200
713.400, 0.159
713.500, 0.185
713.600, 0.182
713.700, 0.175
713.800, 0.166
713.900, 0.184
714.000, 0.166
714.100, 0.195
714.200, 0.205
714.300, 0.156
714.400, 0.181
714.500, 0.180
714.600, 0.179
714.700, 0.189
714.800, 0.191
714.900, 0.232
715.000, 0.195
715.100, 0.191
715.200, 0.195
715.300, 0.189
715.400, 0.178
715.500, 0.168
715.600, 0.194
715.700, 0.168
715.800, 0.175
715.900, 0.185
716.000, 0.232
716.100, 0.222
716.200, 0.228
716.300, 0.193
716.400, 0.185
716.500, 0.212
716.600, 0.209
716.700, 0.164
716.800, 0.177
716.900, 0.190
717.000, 0.185
717.100, 0.193
717.200, 0.167
717.300, 0.189
717.400, 0.177
717.500, 0.177
717.600, 0.193
717.700, 0.191
717.800, 0.183
717.900, 0.164
718.000, 0.182
718.100, 0.177
718.200, 0.193
718.300, 0.186
718.400, 0.201
718.500, 0.197
718.600, 0.198
718.700, 0.185
718.800, 0.184
718.900, 0.184
719.000, 0.199
719.100, 0.203
719.200, 0.218
719.300, 0.208
719.400, 0.193
719.500, 0.188
719.600, 0.187
719.700, 0.187
719.800, 0.186
719.900, 0.184
720.000, 0.181
720.100, 0.186
720.200, 0.185
720.300, 0.253
720.400, 0.208
720.500, 0.221
720.600, 0.239
720.700, 0.236
720.800, 0.212
720.900, 0.196
721.000, 0.192
721.100, 0.180
721.200, 0.184
721.300, 0.171
721.400, 0.185
721.500, 0.186
721.600, 0.179
721.700, 0.181
721.800, 0.171
721.900, 0.182
722.000, 0.178
722.100, 0.183
722.200, 0.185
722.300, 0.191
722.400, 0.170
722.500, 0.183
722.600, 0.174
722.700, 0.165
722.800, 0.172
722.900, 0.161
723.000, 0.181
723.100, 0.192
723.200, 0.191
723.300, 0.210
723.400, 0.206
723.500, 0.205
723.600, 0.178
723.700, 0.218
723.800, 0.218
723.900, 0.185
724.000, 0.190
724.100, 0.188
724.200, 0.182
724.300, 0.192
724.400, 0.191
724.500, 0.210
724.600, 0.193
724.700, 0.189
724.800, 0.189
724.900, 0.193
725.000, 0.214
725.100, 0.219
725.200, 0.195
725.300, 0.191
725.400, 0.213
725.500, 0.200
725.600, 0.210
725.700, 0.201
725.800, 0.218
725.900, 0.215
726.000, 0.201
726.100, 0.207
726.200, 0.205
726.300, 0.211
726.400, 0.211
726.500, 0.222
726.600, 0.207
726.700, 0.218
726.800, 0.205
726.900, 0.232
727.000, 0.224
727.100, 0.233
727.200, 0.215
727.300, 0.198
727.400, 0.215
727.500, 0.200
727.600, 0.205
727.700, 0.201
727.800, 0.197
727.900, 0.211
728.000, 0.224
728.100, 0.202
728.200, 0.211
728.300, 0.215
728.400, 0.229
728.500, 0.217
728.600, 0.205
728.700, 0.183
728.800, 0.199
728.900, 0.204
729.000, 0.201
729.100, 0.200
729.200, 0.191
729.300, 0.194
729.400, 0.196
729.500, 0.195
729.600, 0.191
729.700, 0.190
729.800, 0.197
729.900, 0.192
730.000, 0.212
730.100, 0.213
730.200, 0.194
730.300, 0.183
730.400, 0.201
730.500, 0.203
730.600, 0.190
730.700, 0.185
730.800, 0.192
730.900, 0.190
731.000, 0.193
731.100, 0.175
731.200, 0.189
731.300, 0.186
731.400, 0.189
731.500, 0.165
731.600, 0.179
731.700, 0.184
731.800, 0.184
731.900, 0.193
732.000, 0.179
732.100, 0.216
732.200, 0.180
732.300, 0.174
732.400, 0.194
732.500, 0.183
732.600, 0.170
732.700, 0.187
732.800, 0.183
732.900, 0.188
733.000, 0.179
733.100, 0.199
733.200, 0.177
733.300, 0.197
733.400, 0.221
733.500, 0.230
733.600, 0.192
733.700, 0.204
733.800, 0.195
733.900, 0.200
734.000, 0.202
734.100, 0.202
734.200, 0.193
734.300, 0.200
734.400, 0.196
734.500, 0.227
734.600, 0.190
734.700, 0.224
734.800, 0.205
734.900, 0.202
735.000, 0.202
735.100, 0.222
735.200, 0.172
735.300, 0.194
735.400, 0.194
735.500, 0.208
735.600, 0.204
735.700, 0.190
735.800, 0.198
735.900, 0.195
736.000, 0.196
736.100, 0.195
736.200, 0.194
736.300, 0.205
736.400, 0.174
736.500, 0.195
736.600, 0.188
736.700, 0.229
736.800, 0.235
736.900, 0.207
737.000, 0.263
737.100, 0.216
737.200, 0.228
737.300, 0.232
737.400, 0.192
737.500, 0.197
737.600, 0.185
737.700, 0.176
737.800, 0.181
737.900, 0.203
738.000, 0.185
738.100, 0.197
738.200, 0.189
738.300, 0.195
738.400, 0.188
738.500, 0.178
738.600, 0.192
738.700, 0.176
738.800, 0.170
738.900, 0.185
739.000, 0.175
739.100, 0.182
739.200, 0.186
739.300, 0.169
739.400, 0.176
739.500, 0.168
739.600, 0.191
739.700, 0.186
739.800, 0.169
739.900, 0.184
740.000, 0.202
740.100, 0.194
740.200, 0.185
740.300, 0.169
740.400, 0.169
740.500, 0.179
740.600, 0.214
740.700, 0.184
740.800, 0.170
740.900, 0.161
741.000, 0.180
741.100, 0.174
741.200, 0.162
741.300, 0.168
741.400, 0.176
741.500, 0.183
741.600, 0.151
741.700, 0.172
741.800, 0.172
741.900, 0.174
742.000, 0.160
742.100, 0.160
742.200, 0.178
742.300, 0.190
742.400, 0.193
742.500, 0.202
742.600, 0.181
742.700, 0.195
742.800, 0.176
742.900, 0.205
743.000, 0.199
743.100, 0.195
743.200, 0.198
743.300, 0.200
743.400, 0.206
743.500, 0.196
743.600, 0.188
743.700, 0.181
743.800, 0.188
743.900, 0.187
744.000, 0.200
744.100, 0.176
744.200, 0.183
744.300, 0.196
744.400, 0.185
744.500, 0.219
744.600, 0.202
744.700, 0.224
744.800, 0.272
744.900, 0.272
745.000, 0.302
745.100, 0.259
745.200, 0.249
745.300, 0.240
745.400, 0.265
745.500, 0.249
745.600, 0.246
745.700, 0.245
745.800, 0.287
745.900, 0.261
746.000, 0.256
746.100, 0.261
746.200, 0.279
746.300, 0.254
746.400, 0.265
746.500, 0.274
746.600, 0.281
746.700, 0.259
746.800, 0.249
746.900, 0.245
747.000, 0.235
747.100, 0.237
747.200, 0.238
747.300, 0.234
747.400, 0.225
747.500, 0.231
747.600, 0.225
747.700, 0.258
747.800, 0.271
747.900, 0.247
748.000, 0.239
748.100, 0.233
748.200, 0.240
748.300, 0.247
748.400, 0.223
748.500, 0.245
748.600, 0.233
748.700, 0.232
748.800, 0.215
748.900, 0.231
749.000, 0.253
749.100, 0.260
749.200, 0.230
749.300, 0.224
749.400, 0.271
749.500, 0.297
749.600, 0.236
749.700, 0.220
749.800, 0.197
749.900, 0.209
750.000, 0.209
750.100, 0.196
750.200, 0.191
750.300, 0.177
750.400, 0.174
750.500, 0.174
750.600, 0.200
750.700, 0.205
750.800, 0.199
750.900, 0.178
751.000, 0.184
751.100, 0.180
751.200, 0.173
751.300, 0.181
751.400, 0.193
751.500, 0.179
751.600, 0.167
751.700, 0.165
751.800, 0.173
751.900, 0.165
752.000, 0.169
752.100, 0.171
752.200, 0.183
752.300, 0.179
752.400, 0.155
752.500, 0.161
752.600, 0.143
752.700, 0.151
752.800, 0.176
752.900, 0.174
753.000, 0.157
753.100, 0.161
753.200, 0.157
753.300, 0.170
753.400, 0.197
753.500, 0.184
753.600, 0.200
753.700, 0.179
753.800, 0.188
753.900, 0.165
754.000, 0.160
754.100, 0.147
754.200, 0.172
754.300, 0.157
754.400, 0.177
754.500, 0.156
754.600, 0.181
754.700, 0.166
754.800, 0.188
754.900, 0.167
755.000, 0.166
755.100, 0.178
755.200, 0.167
755.300, 0.151
755.400, 0.190
755.500, 0.184
755.600, 0.182
755.700, 0.195
755.800, 0.181
755.900, 0.188
756.000, 0.157
756.100, 0.159
756.200, 0.158
756.300, 0.166
756.400, 0.185
756.500, 0.185
756.600, 0.174
756.700, 0.180
756.800, 0.183
756.900, 0.179
757.000, 0.203
757.100, 0.172
757.200, 0.171
757.300, 0.162
757.400, 0.172
757.500, 0.164
757.600, 0.160
757.700, 0.146
757.800, 0.158
757.900, 0.156
758.000, 0.151
758.100, 0.169
758.200, 0.193
758.300, 0.194
758.400, 0.175
758.500, 0.193
758.600, 0.180
758.700, 0.192
758.800, 0.182
758.900, 0.193
759.000, 0.212
759.100, 0.196
759.200, 0.181
759.300, 0.189
759.400, 0.195
759.500, 0.192
759.600, 0.207
759.700, 0.217
759.800, 0.212
759.900, 0.221
760.000, 0.190
760.100, 0.189
760.200, 0.184
760.300, 0.184
760.400, 0.186
760.500, 0.185
760.600, 0.204
760.700, 0.213
760.800, 0.238
760.900, 0.234
761.000, 0.245
761.100, 0.227
761.200, 0.185
761.300, 0.182
761.400, 0.220
761.500, 0.212
761.600, 0.225
761.700, 0.211
761.800, 0.213
761.900, 0.194
762.000, 0.195
762.100, 0.184
762.200, 0.179
762.300, 0.198
762.400, 0.193
762.500, 0.182
762.600, 0.198
762.700, 0.192
762.800, 0.186
762.900, 0.198
763.000, 0.237
763.100, 0.248
763.200, 0.278
763.300, 0.244
763.400, 0.244
763.500, 0.232
763.600, 0.233
763.700, 0.235
763.800, 0.221
763.900, 0.197
764.000, 0.193
764.100, 0.190
764.200, 0.195
764.300, 0.231
764.400, 0.220
764.500, 0.235
764.600, 0.219
764.700, 0.203
764.800, 0.192
764.900, 0.167
765.000, 0.201
765.100, 0.188
765.200, 0.198
765.300, 0.189
765.400, 0.159
765.500, 0.176
765.600, 0.181
765.700, 0.182
765.800, 0.160
765.900, 0.149
766.000, 0.184
766.100, 0.182
766.200, 0.169
766.300, 0.172
766.400, 0.184
766.500, 0.172
766.600, 0.173
766.700, 0.171
766.800, 0.165
766.900, 0.167
767.000, 0.168
767.100, 0.181
767.200, 0.178
767.300, 0.203
767.400, 0.208
767.500, 0.190
767.600, 0.181
767.700, 0.180
767.800, 0.162
767.900, 0.170
768.000, 0.188
768.100, 0.174
768.200, 0.187
768.300, 0.197
768.400, 0.176
768.500, 0.169
768.600, 0.178
768.700, 0.200
768.800, 0.208
768.900, 0.150
769.000, 0.187
769.100, 0.222
769.200, 0.166
769.300, 0.167
769.400, 0.155
769.500, 0.174
769.600, 0.169
769.700, 0.175
769.800, 0.159
769.900, 0.172
770.000, 0.170
770.100, 0.170
770.200, 0.163
770.300, 0.159
770.400, 0.165
770.500, 0.178
770.600, 0.187
770.700, 0.181
770.800, 0.173
770.900, 0.177
771.000, 0.174
771.100, 0.195
771.200, 0.171
771.300, 0.164
771.400, 0.140
771.500, 0.183
771.600, 0.194
771.700, 0.170
771.800, 0.166
771.900, 0.166
772.000, 0.167
772.100, 0.171
772.200, 0.176
772.300, 0.196
772.400, 0.172
772.500, 0.204
772.600, 0.172
772.700, 0.177
772.800, 0.196
772.900, 0.169
773.000, 0.228
773.100, 0.193
773.200, 0.240
773.300, 0.200
773.400, 0.195
773.500, 0.171
773.600, 0.169
773.700, 0.177
773.800, 0.186
773.900, 0.162
774.000, 0.154
774.100, 0.165
774.200, 0.157
774.300, 0.181
774.400, 0.140
774.500, 0.147
774.600, 0.156
774.700, 0.165
774.800, 0.159
774.900, 0.160
775.000, 0.159
775.100, 0.180
775.200, 0.177
775.300, 0.160
775.400, 0.179
775.500, 0.176
775.600, 0.152
775.700, 0.183
775.800, 0.180
775.900, 0.167
776.000, 0.167
776.100, 0.146
776.200, 0.170
776.300, 0.178
776.400, 0.180
776.500, 0.157
776.600, 0.188
776.700, 0.160
776.800, 0.182
776.900, 0.202
777.000, 0.186
777.100, 0.198
777.200, 0.193
777.300, 0.161
777.400, 0.175
777.500, 0.194
777.600, 0.201
777.700, 0.170
777.800, 0.183
777.900, 0.159
778.000, 0.170
778.100, 0.161
778.200, 0.149
778.300, 0.183
778.400, 0.155
778.500, 0.159
778.600, 0.145
778.700, 0.148
778.800, 0.191
778.900, 0.183
779.000, 0.173
779.100, 0.167
779.200, 0.164
779.300, 0.166
779.400, 0.195
779.500, 0.177
779.600, 0.190
779.700, 0.173
779.800, 0.174
779.900, 0.177
780.000, 0.141
780.100, 0.174
780.200, 0.163
780.300, 0.164
780.400, 0.160
780.500, 0.160
780.600, 0.179
780.700, 0.167
780.800, 0.166
780.900, 0.161
781.000, 0.193
781.100, 0.189
781.200, 0.180
781.300, 0.196
781.400, 0.182
781.500, 0.183
781.600, 0.193
781.700, 0.164
781.800, 0.188
781.900, 0.179
782.000, 0.167
782.100, 0.168
782.200, 0.185
782.300, 0.188
782.400, 0.191
782.500, 0.176
782.600, 0.200
782.700, 0.187
782.800, 0.163
782.900, 0.192
783.000, 0.211
783.100, 0.172
783.200, 0.154
783.300, 0.168
783.400, 0.167
783.500, 0.167
783.600, 0.168
783.700, 0.153
783.800, 0.166
783.900, 0.149
784.000, 0.182
784.100, 0.181
784.200, 0.159
784.300, 0.168
784.400, 0.178
784.500, 0.174
784.600, 0.169
784.700, 0.180
784.800, 0.159
784.900, 0.170
785.000, 0.174
785.100, 0.188
785.200, 0.183
785.300, 0.177
785.400, 0.193
785.500, 0.183
785.600, 0.180
785.700, 0.172
785.800, 0.162
785.900, 0.180
786.000, 0.174
786.100, 0.170
786.200, 0.180
786.300, 0.189
786.400, 0.178
786.500, 0.187
786.600, 0.175
786.700, 0.228
786.800, 0.224
786.900, 0.237
787.000, 0.232
787.100, 0.209
787.200, 0.201
787.300, 0.181
787.400, 0.176
787.500, 0.163
787.600, 0.156
787.700, 0.158
787.800, 0.169
787.900, 0.182
788.000, 0.172
788.100, 0.168
788.200, 0.146
788.300, 0.156
788.400, 0.167
788.500, 0.176
788.600, 0.198
788.700, 0.181
788.800, 0.182
788.900, 0.184
789.000, 0.181
789.100, 0.172
789.200, 0.181
789.300, 0.187
789.400, 0.173
789.500, 0.174
789.600, 0.173
789.700, 0.168
789.800, 0.169
789.900, 0.178
790.000, 0.185
790.100, 0.181
790.200, 0.171
790.300, 0.198
790.400, 0.177
790.500, 0.150
790.600, 0.177
790.700, 0.167
790.800, 0.193
790.900, 0.188
791.000, 0.183
791.100, 0.206
791.200, 0.211
791.300, 0.180
791.400, 0.191
791.500, 0.179
791.600, 0.178
791.700, 0.167
791.800, 0.192
791.900, 0.188
792.000, 0.195
792.100, 0.194
792.200, 0.167
792.300, 0.168
792.400, 0.158
792.500, 0.170
792.600, 0.168
792.700, 0.160
792.800, 0.179
792.900, 0.159
793.000, 0.131
793.100, 0.156
793.200, 0.146
793.300, 0.159
793.400, 0.170
793.500, 0.160
793.600, 0.167
793.700, 0.178
793.800, 0.183
793.900, 0.200
794.000, 0.173
794.100, 0.181
794.200, 0.205
794.300, 0.220
794.400, 0.209
794.500, 0.175
794.600, 0.189
794.700, 0.209
794.800, 0.218
794.900, 0.196
795.000, 0.215
795.100, 0.209
795.200, 0.204
795.300, 0.207
795.400, 0.201
795.500, 0.230
795.600, 0.194
795.700, 0.184
795.800, 0.170
795.900, 0.173
796.000, 0.172
796.100, 0.184
796.200, 0.214
796.300, 0.168
796.400, 0.187
796.500, 0.189
796.600, 0.189
796.700, 0.179
796.800, 0.176
796.900, 0.191
797.000, 0.216
797.100, 0.214
797.200, 0.205
797.300, 0.199
797.400, 0.197
797.500, 0.209
797.600, 0.218
797.700, 0.192
797.800, 0.177
797.900, 0.203
798.000, 0.214
798.100, 0.216
798.200, 0.208
798.300, 0.187
798.400, 0.179
798.500, 0.207
798.600, 0.188
798.700, 0.181
798.800, 0.191
798.900, 0.193
799.000, 0.218
799.100, 0.209
799.200, 0.179
799.300, 0.189
799.400, 0.196
799.500, 0.176
799.600, 0.185
799.700, 0.182
799.800, 0.222
799.900, 0.196
800.000, 0.207
800.100, 0.196
800.200, 0.165
800.300, 0.187
800.400, 0.197
800.500, 0.205
800.600, 0.193
800.700, 0.185
800.800, 0.201
800.900, 0.222
801.000, 0.210
801.100, 0.203
801.200, 0.176
801.300, 0.175
801.400, 0.178
801.500, 0.172
801.600, 0.181
801.700, 0.181
801.800, 0.205
801.900, 0.181
802.000, 0.176
802.100, 0.191
802.200, 0.215
802.300, 0.204
802.400, 0.174
802.500, 0.191
802.600, 0.161
802.700, 0.161
802.800, 0.179
802.900, 0.160
803.000, 0.161
803.100, 0.192
803.200, 0.180
803.300, 0.176
803.400, 0.171
803.500, 0.182
803.600, 0.166
803.700, 0.172
803.800, 0.172
803.900, 0.162
804.000, 0.144
804.100, 0.176
804.200, 0.199
804.300, 0.195
804.400, 0.219
804.500, 0.197
804.600, 0.198
804.700, 0.197
804.800, 0.213
804.900, 0.175
805.000, 0.202
805.100, 0.212
805.200, 0.183
805.300, 0.169
805.400, 0.172
805.500, 0.167
805.600, 0.182
805.700, 0.183
805.800, 0.172
805.900, 0.176
806.000, 0.188
806.100, 0.173
806.200, 0.179
806.300, 0.190
806.400, 0.180
806.500, 0.195
806.600, 0.208
806.700, 0.227
806.800, 0.211
806.900, 0.188
807.000, 0.163
807.100, 0.176
807.200, 0.171
807.300, 0.167
807.400, 0.163
807.500, 0.176
807.600, 0.177
807.700, 0.180
807.800, 0.179
807.900, 0.176
808.000, 0.169
808.100, 0.191
808.200, 0.209
808.300, 0.190
808.400, 0.202
808.500, 0.181
808.600, 0.179
808.700, 0.185
808.800, 0.194
808.900, 0.191
809.000, 0.209
809.100, 0.192
809.200, 0.199
809.300, 0.210
809.400, 0.184
809.500, 0.208
809.600, 0.190
809.700, 0.199
809.800, 0.198
809.900, 0.206
810.000, 0.226
810.100, 0.204
810.200, 0.220
810.300, 0.241
810.400, 0.265
810.500, 0.230
810.600, 0.224
810.700, 0.211
810.800, 0.212
810.900, 0.184
811.000, 0.219
811.100, 0.211
811.200, 0.210
811.300, 0.162
811.400, 0.202
811.500, 0.210
811.600, 0.185
811.700, 0.201
811.800, 0.199
811.900, 0.190
812.000, 0.194
812.100, 0.193
812.200, 0.188
812.300, 0.183
812.400, 0.192
812.500, 0.197
812.600, 0.187
812.700, 0.211
812.800, 0.204
812.900, 0.196
813.000, 0.219
813.100, 0.192
813.200, 0.184
813.300, 0.198
813.400, 0.195
813.500, 0.188
813.600, 0.186
813.700, 0.186
813.800, 0.183
813.900, 0.190
814.000, 0.176
814.100, 0.168
814.200, 0.179
814.300, 0.190
814.400, 0.205
814.500, 0.175
814.600, 0.164
814.700, 0.176
814.800, 0.187
814.900, 0.175
815.000, 0.165
815.100, 0.175
815.200, 0.180
815.300, 0.164
815.400, 0.173
815.500, 0.176
815.600, 0.200
815.700, 0.180
815.800, 0.187
815.900, 0.182
816.000, 0.200
816.100, 0.222
816.200, 0.206
816.300, 0.201
816.400, 0.176
816.500, 0.208
816.600, 0.201
816.700, 0.194
816.800, 0.176
816.900, 0.182
817.000, 0.220
817.100, 0.225
817.200, 0.206
817.300, 0.188
817.400, 0.188
817.500, 0.196
817.600, 0.197
817.700, 0.190
817.800, 0.197
817.900, 0.206
818.000, 0.209
818.100, 0.216
818.200, 0.198
818.300, 0.201
818.400, 0.215
818.500, 0.207
818.600, 0.199
818.700, 0.201
818.800, 0.202
818.900, 0.209
819.000, 0.216
819.100, 0.225
819.200, 0.218
819.300, 0.225
819.400, 0.210
819.500, 0.211
819.600, 0.212
819.700, 0.227
819.800, 0.217
819.900, 0.203
820.000, 0.209
820.100, 0.217
820.200, 0.214
820.300, 0.186
820.400, 0.181
820.500, 0.183
820.600, 0.181
820.700, 0.187
820.800, 0.172
820.900, 0.171
821.000, 0.197
821.100, 0.170
821.200, 0.188
821.300, 0.204
821.400, 0.218
821.500, 0.193
821.600, 0.187
821.700, 0.205
821.800, 0.196
821.900, 0.220
822.000, 0.190
822.100, 0.203
822.200, 0.183
822.300, 0.182
822.400, 0.182
822.500, 0.196
822.600, 0.204
822.700, 0.184
822.800, 0.197
822.900, 0.209
823.000, 0.218
823.100, 0.225
823.200, 0.192
823.300, 0.193
823.400, 0.213
823.500, 0.208
823.600, 0.221
823.700, 0.211
823.800, 0.187
823.900, 0.211
824.000, 0.217
824.100, 0.219
824.200, 0.211
824.300, 0.201
824.400, 0.207
824.500, 0.191
824.600, 0.191
824.700, 0.199
824.800, 0.216
824.900, 0.188
825.000, 0.176
825.100, 0.191
825.200, 0.187
825.300, 0.177
825.400, 0.170
825.500, 0.172
825.600, 0.182
825.700, 0.190
825.800, 0.183
825.900, 0.150
826.000, 0.183
826.100, 0.183
826.200, 0.196
826.300, 0.174
826.400, 0.179
826.500, 0.181
826.600, 0.180
826.700, 0.191
826.800, 0.200
826.900, 0.179
827.000, 0.169
827.100, 0.174
827.200, 0.189
827.300, 0.192
827.400, 0.182
827.500, 0.178
827.600, 0.158
827.700, 0.162
827.800, 0.162
827.900, 0.165
828.000, 0.179
828.100, 0.158
828.200, 0.194
828.300, 0.165
828.400, 0.188
828.500, 0.195
828.600, 0.188
828.700, 0.182
828.800, 0.192
828.900, 0.169
829.000, 0.184
829.100, 0.186
829.200, 0.182
829.300, 0.182
829.400, 0.193
829.500, 0.188
829.600, 0.208
829.700, 0.198
829.800, 0.230
829.900, 0.205
830.000, 0.196
830.100, 0.172
830.200, 0.167
830.300, 0.186
830.400, 0.182
830.500, 0.190
830.600, 0.172
830.700, 0.166
830.800, 0.185
830.900, 0.182
831.000, 0.177
831.100, 0.168
831.200, 0.177
831.300, 0.175
831.400, 0.160
831.500, 0.177
831.600, 0.170
831.700, 0.182
831.800, 0.174
831.900, 0.175
832.000, 0.177
832.100, 0.176
832.200, 0.171
832.300, 0.179
832.400, 0.174
832.500, 0.187
832.600, 0.186
832.700, 0.174
832.800, 0.176
832.900, 0.182
833.000, 0.188
833.100, 0.177
833.200, 0.182
833.300, 0.174
833.400, 0.165
833.500, 0.190
833.600, 0.187
833.700, 0.197
833.800, 0.185
833.900, 0.197
834.000, 0.167
834.100, 0.176
834.200, 0.198
834.300, 0.173
834.400, 0.188
834.500, 0.198
834.600, 0.193
834.700, 0.211
834.800, 0.193
834.900, 0.181
835.000, 0.197
835.100, 0.173
835.200, 0.161
835.300, 0.178
835.400, 0.172
835.500, 0.178
835.600, 0.190
835.700, 0.200
835.800, 0.181
835.900, 0.182
836.000, 0.175
836.100, 0.186
836.200, 0.163
836.300, 0.189
836.400, 0.185
836.500, 0.191
836.600, 0.211
836.700, 0.243
836.800, 0.196
836.900, 0.192
837.000, 0.176
837.100, 0.180
837.200, 0.172
837.300, 0.175
837.400, 0.183
837.500, 0.185
837.600, 0.186
837.700, 0.187
837.800, 0.199
837.900, 0.194
838.000, 0.193
838.100, 0.191
838.200, 0.209
838.300, 0.241
838.400, 0.254
838.500, 0.251
838.600, 0.228
838.700, 0.263
838.800, 0.270
838.900, 0.236
839.000, 0.209
839.100, 0.246
839.200, 0.246
839.300, 0.264
839.400, 0.234
839.500, 0.232
839.600, 0.203
839.700, 0.212
839.800, 0.205
839.900, 0.197
840.000, 0.214
840.100, 0.221
840.200, 0.234
840.300, 0.234
840.400, 0.259
840.500, 0.228
840.600, 0.213
840.700, 0.210
840.800, 0.215
840.900, 0.226
841.000, 0.216
841.100, 0.206
841.200, 0.203
841.300, 0.191
841.400, 0.205
841.500, 0.193
841.600, 0.193
841.700, 0.181
841.800, 0.195
841.900, 0.198
842.000, 0.213
842.100, 0.205
842.200, 0.199
842.300, 0.205
842.400, 0.204
842.500, 0.195
842.600, 0.199
842.700, 0.186
842.800, 0.192
842.900, 0.189
843.000, 0.191
843.100, 0.187
843.200, 0.181
843.300, 0.189
843.400, 0.198
843.500, 0.179
843.600, 0.176
843.700, 0.188
843.800, 0.193
843.900, 0.195
844.000, 0.181
844.100, 0.164
844.200, 0.176
844.300, 0.166
844.400, 0.174
844.500, 0.185
844.600, 0.183
844.700, 0.178
844.800, 0.187
844.900, 0.178
845.000, 0.182
845.100, 0.184
845.200, 0.182
845.300, 0.170
845.400, 0.179
845.500, 0.197
845.600, 0.188
845.700, 0.163
845.800, 0.153
845.900, 0.170
846.000, 0.167
846.100, 0.181
846.200, 0.177
846.300, 0.180
846.400, 0.178
846.500, 0.168
846.600, 0.154
846.700, 0.155
846.800, 0.161
846.900, 0.170
847.000, 0.201
847.100, 0.222
847.200, 0.199
847.300, 0.187
847.400, 0.171
847.500, 0.166
847.600, 0.189
847.700, 0.188
847.800, 0.190
847.900, 0.189
848.000, 0.191
848.100, 0.213
848.200, 0.212
848.300, 0.168
848.400, 0.186
848.500, 0.208
848.600, 0.201
848.700, 0.227
848.800, 0.202
848.900, 0.192
849.000, 0.219
849.100, 0.205
849.200, 0.201
849.300, 0.224
849.400, 0.212
849.500, 0.186
849.600, 0.214
849.700, 0.196
849.800, 0.185
849.900, 0.194
850.000, 0.194
850.100, 0.219
850.200, 0.193
850.300, 0.189
850.400, 0.220
850.500, 0.184
850.600, 0.200
850.700, 0.186
850.800, 0.170
850.900, 0.189
851.000, 0.188
851.100, 0.174
851.200, 0.165
851.300, 0.173
851.400, 0.175
851.500, 0.190
851.600, 0.178
851.700, 0.156
851.800, 0.165
851.900, 0.178
852.000, 0.189
852.100, 0.192
852.200, 0.188
852.300, 0.205
852.400, 0.195
852.500, 0.206
852.600, 0.209
852.700, 0.177
852.800, 0.209
852.900, 0.200
853.000, 0.200
853.100, 0.197
853.200, 0.194
853.300, 0.198
853.400, 0.175
853.500, 0.186
853.600, 0.170
853.700, 0.211
853.800, 0.177
853.900, 0.179
854.000, 0.174
854.100, 0.177
854.200, 0.178
854.300, 0.164
854.400, 0.225
854.500, 0.188
854.600, 0.190
854.700, 0.188
854.800, 0.179
854.900, 0.168
855.000, 0.169
855.100, 0.169
855.200, 0.162
855.300, 0.165
855.400, 0.174
855.500, 0.215
855.600, 0.198
855.700, 0.160
855.800, 0.165
855.900, 0.165
856.000, 0.162
856.100, 0.171
856.200, 0.182
856.300, 0.185
856.400, 0.198
856.500, 0.218
856.600, 0.189
856.700, 0.168
856.800, 0.190
856.900, 0.180
857.000, 0.174
857.100, 0.176
857.200, 0.196
857.300, 0.192
857.400, 0.189
857.500, 0.184
857.600, 0.196
857.700, 0.186
857.800, 0.191
857.900, 0.203
858.000, 0.196
858.100, 0.183
858.200, 0.208
858.300, 0.194
858.400, 0.180
858.500, 0.179
858.600, 0.172
858.700, 0.167
858.800, 0.169
858.900, 0.189
859.000, 0.185
859.100, 0.168
859.200, 0.170
859.300, 0.174
859.400, 0.142
859.500, 0.149
859.600, 0.162
859.700, 0.156
859.800, 0.162
859.900, 0.142
860.000, 0.189
860.100, 0.160
860.200, 0.175
860.300, 0.169
860.400, 0.216
860.500, 0.187
860.600, 0.179
860.700, 0.181
860.800, 0.179
860.900, 0.183
861.000, 0.171
861.100, 0.193
861.200, 0.208
861.300, 0.235
861.400, 0.173
861.500, 0.203
861.600, 0.158
861.700, 0.166
861.800, 0.189
861.900, 0.154
862.000, 0.132
862.100, 0.144
862.200, 0.139
862.300, 0.176
862.400, 0.144
862.500, 0.159
862.600, 0.204
862.700, 0.170
862.800, 0.205
862.900, 0.184
863.000, 0.192
863.100, 0.160
863.200, 0.176
863.300, 0.201
863.400, 0.176
863.500, 0.181
863.600, 0.213
863.700, 0.199
863.800, 0.178
863.900, 0.187
864.000, 0.179
864.100, 0.190
864.200, 0.207
864.300, 0.197
864.400, 0.212
864.500, 0.210
864.600, 0.200
864.700, 0.194
864.800, 0.154
864.900, 0.176
865.000, 0.155
865.100, 0.187
865.200, 0.188
865.300, 0.174
865.400, 0.201
865.500, 0.210
865.600, 0.205
865.700, 0.224
865.800, 0.215
865.900, 0.179
866.000, 0.170
866.100, 0.178
866.200, 0.185
866.300, 0.198
866.400, 0.181
866.500, 0.175
866.600, 0.156
866.700, 0.159
866.800, 0.176
866.900, 0.211
867.000, 0.201
867.100, 0.208
867.200, 0.208
867.300, 0.190
867.400, 0.193
867.500, 0.175
867.600, 0.174
867.700, 0.168
867.800, 0.184
867.900, 0.174
868.000, 0.175
868.100, 0.179
868.200, 0.177
868.300, 0.181
868.400, 0.180
868.500, 0.187
868.600, 0.192
868.700, 0.193
868.800, 0.177
868.900, 0.179
869.000, 0.193
869.100, 0.195
869.200, 0.181
869.300, 0.199
869.400, 0.206
869.500, 0.198
869.600, 0.210
869.700, 0.190
869.800, 0.187
869.900, 0.187
870.000, 0.225
870.100, 0.222
870.200, 0.228
870.300, 0.214
870.400, 0.256
870.500, 0.253
870.600, 0.220
870.700, 0.246
870.800, 0.203
870.900, 0.203
871.000, 0.215
871.100, 0.216
871.200, 0.212
871.300, 0.218
871.400, 0.204
871.500, 0.193
871.600, 0.174
871.700, 0.189
871.800, 0.204
871.900, 0.191
872.000, 0.204
872.100, 0.214
872.200, 0.199
872.300, 0.171
872.400, 0.176
872.500, 0.160
872.600, 0.183
872.700, 0.158
872.800, 0.165
872.900, 0.185
873.000, 0.176
873.100, 0.171
873.200, 0.163
873.300, 0.192
873.400, 0.175
873.500, 0.223
873.600, 0.178
873.700, 0.170
873.800, 0.193
873.900, 0.188
874.000, 0.196
874.100, 0.186
874.200, 0.176
874.300, 0.151
874.400, 0.142
874.500, 0.133
874.600, 0.162
874.700, 0.195
874.800, 0.174
874.900, 0.163
875.000, 0.161
875.100, 0.180
875.200, 0.233
875.300, 0.214
875.400, 0.201
875.500, 0.199
875.600, 0.210
875.700, 0.191
875.800, 0.179
875.900, 0.178
876.000, 0.159
876.100, 0.178
876.200, 0.186
876.300, 0.178
876.400, 0.163
876.500, 0.166
876.600, 0.162
876.700, 0.145
876.800, 0.171
876.900, 0.166
877.000, 0.166
877.100, 0.209
877.200, 0.151
877.300, 0.181
877.400, 0.165
877.500, 0.160
877.600, 0.183
877.700, 0.164
877.800, 0.163
877.900, 0.182
878.000, 0.169
878.100, 0.146
878.200, 0.159
878.300, 0.175
878.400, 0.172
878.500, 0.192
878.600, 0.197
878.700, 0.164
878.800, 0.152
878.900, 0.164
879.000, 0.154
879.100, 0.141
879.200, 0.146
879.300, 0.145
879.400, 0.168
879.500, 0.178
879.600, 0.150
879.700, 0.144
879.800, 0.151
879.900, 0.139
880.000, 0.145
880.100, 0.166
880.200, 0.164
880.300, 0.177
880.400, 0.166
880.500, 0.172
880.600, 0.163
880.700, 0.171
880.800, 0.188
880.900, 0.177
881.000, 0.179
881.100, 0.171
881.200, 0.182
881.300, 0.177
881.400, 0.185
881.500, 0.200
881.600, 0.182
881.700, 0.198
881.800, 0.197
881.900, 0.157
882.000, 0.158
882.100, 0.171
882.200, 0.167
882.300, 0.177
882.400, 0.170
882.500, 0.173
882.600, 0.163
882.700, 0.166
882.800, 0.143
882.900, 0.150
883.000, 0.140
883.100, 0.152
883.200, 0.161
883.300, 0.162
883.400, 0.162
883.500, 0.177
883.600, 0.161
883.700, 0.180
883.800, 0.169
883.900, 0.184
884.000, 0.178
884.100, 0.169
884.200, 0.181
884.300, 0.185
884.400, 0.211
884.500, 0.196
884.600, 0.170
884.700, 0.184
884.800, 0.181
884.900, 0.156
885.000, 0.165
885.100, 0.175
885.200, 0.179
885.300, 0.185
885.400, 0.182
885.500, 0.170
885.600, 0.166
885.700, 0.167
885.800, 0.160
885.900, 0.162
886.000, 0.153
886.100, 0.151
886.200, 0.166
886.300, 0.154
886.400, 0.165
886.500, 0.166
886.600, 0.166
886.700, 0.169
886.800, 0.162
886.900, 0.168
887.000, 0.165
887.100, 0.172
887.200, 0.154
887.300, 0.159
887.400, 0.155
887.500, 0.171
887.600, 0.158
887.700, 0.133
887.800, 0.149
887.900, 0.161
888.000, 0.157
888.100, 0.158
888.200, 0.170
888.300, 0.185
888.400, 0.181
888.500, 0.156
888.600, 0.169
888.700, 0.169
888.800, 0.182
888.900, 0.190
889.000, 0.163
889.100, 0.169
889.200, 0.168
889.300, 0.180
889.400, 0.182
889.500, 0.199
889.600, 0.184
889.700, 0.172
889.800, 0.178
889.900, 0.177
890.000, 0.169
890.100, 0.166
890.200, 0.156
890.300, 0.147
890.400, 0.152
890.500, 0.138
890.600, 0.142
890.700, 0.147
890.800, 0.134
890.900, 0.160
891.000, 0.155
891.100, 0.158
891.200, 0.161
891.300, 0.161
891.400, 0.167
891.500, 0.166
891.600, 0.174
891.700, 0.148
891.800, 0.149
891.900, 0.160
892.000, 0.157
892.100, 0.171
892.200, 0.173
892.300, 0.150
892.400, 0.180
892.500, 0.186
892.600, 0.164
892.700, 0.177
892.800, 0.174
892.900, 0.160
893.000, 0.169
893.100, 0.175
893.200, 0.162
893.300, 0.169
893.400, 0.171
893.500, 0.156
893.600, 0.156
893.700, 0.162
893.800, 0.170
893.900, 0.146
894.000, 0.135
894.100, 0.147
894.200, 0.143
894.300, 0.146
894.400, 0.187
894.500, 0.170
894.600, 0.168
894.700, 0.201
894.800, 0.175
894.900, 0.201
895.000, 0.183
895.100, 0.178
895.200, 0.175
895.300, 0.173
895.400, 0.182
895.500, 0.184
895.600, 0.197
895.700, 0.182
895.800, 0.189
895.900, 0.190
896.000, 0.161
896.100, 0.202
896.200, 0.197
896.300, 0.194
896.400, 0.189
896.500, 0.160
896.600, 0.156
896.700, 0.172
896.800, 0.158
896.900, 0.164
897.000, 0.161
897.100, 0.174
897.200, 0.164
897.300, 0.165
897.400, 0.165
897.500, 0.173
897.600, 0.160
897.700, 0.156
897.800, 0.193
897.900, 0.180
898.000, 0.189
898.100, 0.190
898.200, 0.175
898.300, 0.171
898.400, 0.180
898.500, 0.182
898.600, 0.171
898.700, 0.174
898.800, 0.196
898.900, 0.196
899.000, 0.191
899.100, 0.185
899.200, 0.176
899.300, 0.177
899.400, 0.183
899.500, 0.194
899.600, 0.198
899.700, 0.188
899.800, 0.185
899.900, 0.182
900.000, 0.172
900.100, 0.184
900.200, 0.190
900.300, 0.205
900.400, 0.171
900.500, 0.163
900.600, 0.190
900.700, 0.180
900.800, 0.168
900.900, 0.171
901.000, 0.183
901.100, 0.182
901.200, 0.158
901.300, 0.141
901.400, 0.175
901.500, 0.155
901.600, 0.157
901.700, 0.176
901.800, 0.184
901.900, 0.139
902.000, 0.188
902.100, 0.199
902.200, 0.196
902.300, 0.210
902.400, 0.228
902.500, 0.208
902.600, 0.188
902.700, 0.185
902.800, 0.182
902.900, 0.189
903.000, 0.166
903.100, 0.179
903.200, 0.191
903.300, 0.172
903.400, 0.170
903.500, 0.200
903.600, 0.194
903.700, 0.188
903.800, 0.192
903.900, 0.191
904.000, 0.180
904.100, 0.173
904.200, 0.175
904.300, 0.163
904.400, 0.167
904.500, 0.163
904.600, 0.185
904.700, 0.164
904.800, 0.171
904.900, 0.163
905.000, 0.185
905.100, 0.166
905.200, 0.178
905.300, 0.173
905.400, 0.184
905.500, 0.165
905.600, 0.161
905.700, 0.155
905.800, 0.169
905.900, 0.172
906.000, 0.211
906.100, 0.183
906.200, 0.187
906.300, 0.172
906.400, 0.170
906.500, 0.178
906.600, 0.185
906.700, 0.175
906.800, 0.207
906.900, 0.187
907.000, 0.191
907.100, 0.171
907.200, 0.177
907.300, 0.150
907.400, 0.159
907.500, 0.195
907.600, 0.222
907.700, 0.189
907.800, 0.173
907.900, 0.206
908.000, 0.167
908.100, 0.177
908.200, 0.173
908.300, 0.183
908.400, 0.175
908.500, 0.182
908.600, 0.161
908.700, 0.174
908.800, 0.169
908.900, 0.174
909.000, 0.172
909.100, 0.208
909.200, 0.176
909.300, 0.184
909.400, 0.176
909.500, 0.191
909.600, 0.178
909.700, 0.162
909.800, 0.181
909.900, 0.158
910.000, 0.173
910.100, 0.165
910.200, 0.178
910.300, 0.176
910.400, 0.171
910.500, 0.188
910.600, 0.191
910.700, 0.182
910.800, 0.185
910.900, 0.174
911.000, 0.163
911.100, 0.168
911.200, 0.169
911.300, 0.176
911.400, 0.176
911.500, 0.187
911.600, 0.184
911.700, 0.187
911.800, 0.173
911.900, 0.193
912.000, 0.190
912.100, 0.170
912.200, 0.166
912.300, 0.187
912.400, 0.167
912.500, 0.189
912.600, 0.202
912.700, 0.192
912.800, 0.199
912.900, 0.184
913.000, 0.183
913.100, 0.169
913.200, 0.182
913.300, 0.180
913.400, 0.171
913.500, 0.165
913.600, 0.167
913.700, 0.176
913.800, 0.198
913.900, 0.170
914.000, 0.191
914.100, 0.189
914.200, 0.197
914.300, 0.182
914.400, 0.204
914.500, 0.187
914.600, 0.177
914.700, 0.177
914.800, 0.157
914.900, 0.164
915.000, 0.158
915.100, 0.169
915.200, 0.167
915.300, 0.166
915.400, 0.188
915.500, 0.180
915.600, 0.168
915.700, 0.157
915.800, 0.170
915.900, 0.156
916.000, 0.177
916.100, 0.166
916.200, 0.182
916.300, 0.205
916.400, 0.202
916.500, 0.174
916.600, 0.168
916.700, 0.177
916.800, 0.198
916.900, 0.173
917.000, 0.181
917.100, 0.183
917.200, 0.188
917.300, 0.191
917.400, 0.187
917.500, 0.168
917.600, 0.173
917.700, 0.171
917.800, 0.160
917.900, 0.169
918.000, 0.158
918.100, 0.169
918.200, 0.181
918.300, 0.166
918.400, 0.182
918.500, 0.164
918.600, 0.185
918.700, 0.184
918.800, 0.164
918.900, 0.196
919.000, 0.215
919.100, 0.185
919.200, 0.172
919.300, 0.178
919.400, 0.172
919.500, 0.208
919.600, 0.202
919.700, 0.212
919.800, 0.207
919.900, 0.188
920.000, 0.182
920.100, 0.195
920.200, 0.193
920.300, 0.158
920.400, 0.163
920.500, 0.180
920.600, 0.163
920.700, 0.171
920.800, 0.147
920.900, 0.179
921.000, 0.206
921.100, 0.190
921.200, 0.182
921.300, 0.210
921.400, 0.194
921.500, 0.179
921.600, 0.197
921.700, 0.211
921.800, 0.187
921.900, 0.194
922.000, 0.158
922.100, 0.175
922.200, 0.151
922.300, 0.123
922.400, 0.133
922.500, 0.158
922.600, 0.158
922.700, 0.175
922.800, 0.158
922.900, 0.145
923.000, 0.153
923.100, 0.146
923.200, 0.165
923.300, 0.177
923.400, 0.151
923.500, 0.158
923.600, 0.181
923.700, 0.201
923.800, 0.172
923.900, 0.166
924.000, 0.183
924.100, 0.185
924.200, 0.188
924.300, 0.224
924.400, 0.195
924.500, 0.178
924.600, 0.170
924.700, 0.162
924.800, 0.172
924.900, 0.161
925.000, 0.182
925.100, 0.177
925.200, 0.159
925.300, 0.164
925.400, 0.176
925.500, 0.168
925.600, 0.169
925.700, 0.192
925.800, 0.197
925.900, 0.174
926.000, 0.162
926.100, 0.160
926.200, 0.158
926.300, 0.161
926.400, 0.169
926.500, 0.178
926.600, 0.176
926.700, 0.189
926.800, 0.171
926.900, 0.174
927.000, 0.158
927.100, 0.172
927.200, 0.182
927.300, 0.167
927.400, 0.185
927.500, 0.187
927.600, 0.179
927.700, 0.187
927.800, 0.172
927.900, 0.160
928.000, 0.162
928.100, 0.161
928.200, 0.161
928.300, 0.165
928.400, 0.158
928.500, 0.152
928.600, 0.163
928.700, 0.155
928.800, 0.173
928.900, 0.165
929.000, 0.147
929.100, 0.159
929.200, 0.154
929.300, 0.168
929.400, 0.180
929.500, 0.181
929.600, 0.164
929.700, 0.178
929.800, 0.147
929.900, 0.147
930.000, 0.153
930.100, 0.163
930.200, 0.175
930.300, 0.158
930.400, 0.154
930.500, 0.161
930.600, 0.169
930.700, 0.159
930.800, 0.184
930.900, 0.156
931.000, 0.153
931.100, 0.169
931.200, 0.163
931.300, 0.164
931.400, 0.160
931.500, 0.162
931.600, 0.134
931.700, 0.153
931.800, 0.164
931.900, 0.152
932.000, 0.162
932.100, 0.160
932.200, 0.166
932.300, 0.162
932.400, 0.153
932.500, 0.149
932.600, 0.134
932.700, 0.143
932.800, 0.129
932.900, 0.165
933.000, 0.181
933.100, 0.162
933.200, 0.149
933.300, 0.154
933.400, 0.159
933.500, 0.147
933.600, 0.162
933.700, 0.165
933.800, 0.146
933.900, 0.154
934.000, 0.149
934.100, 0.159
934.200, 0.158
934.300, 0.141
934.400, 0.151
934.500, 0.158
934.600, 0.130
934.700, 0.129
934.800, 0.144
934.900, 0.149
935.000, 0.135
935.100, 0.149
935.200, 0.172
935.300, 0.150
935.400, 0.163
935.500, 0.125
935.600, 0.145
935.700, 0.137
935.800, 0.163
935.900, 0.151
936.000, 0.148
936.100, 0.169
936.200, 0.173
936.300, 0.166
936.400, 0.198
936.500, 0.211
936.600, 0.205
936.700, 0.193
936.800, 0.211
936.900, 0.197
937.000, 0.181
937.100, 0.191
937.200, 0.176
937.300, 0.220
937.400, 0.207
937.500, 0.200
937.600, 0.204
937.700, 0.167
937.800, 0.183
937.900, 0.184
938.000, 0.162
938.100, 0.195
938.200, 0.194
938.300, 0.176
938.400, 0.192
938.500, 0.179
938.600, 0.177
938.700, 0.171
938.800, 0.178
938.900, 0.180
939.000, 0.170
939.100, 0.203
939.200, 0.211
939.300, 0.210
939.400, 0.222
939.500, 0.207
939.600, 0.214
939.700, 0.186
939.800, 0.149
939.900, 0.151
940.000, 0.177
940.100, 0.181
940.200, 0.180
940.300, 0.153
940.400, 0.162
940.500, 0.167
940.600, 0.164
940.700, 0.162
940.800, 0.201
940.900, 0.190
941.000, 0.202
941.100, 0.228
941.200, 0.180
941.300, 0.180
941.400, 0.202
941.500, 0.209
941.600, 0.184
941.700, 0.157
941.800, 0.172
941.900, 0.167
942.000, 0.181
942.100, 0.190
942.200, 0.168
942.300, 0.170
942.400, 0.201
942.500, 0.212
942.600, 0.189
942.700, 0.200
942.800, 0.187
942.900, 0.172
943.000, 0.200
943.100, 0.192
943.200, 0.153
943.300, 0.153
943.400, 0.155
943.500, 0.157
943.600, 0.168
943.700, 0.174
943.800, 0.179
943.900, 0.185
944.000, 0.186
944.100, 0.193
944.200, 0.212
944.300, 0.210
944.400, 0.191
944.500, 0.208
944.600, 0.157
944.700, 0.181
944.800, 0.175
944.900, 0.189
945.000, 0.195
945.100, 0.208
945.200, 0.167
945.300, 0.193
945.400, 0.168
945.500, 0.156
945.600, 0.179
945.700, 0.155
945.800, 0.170
945.900, 0.163
946.000, 0.174
946.100, 0.179
946.200, 0.167
946.300, 0.186
946.400, 0.181
946.500, 0.169
946.600, 0.170
946.700, 0.195
946.800, 0.199
946.900, 0.177
947.000, 0.180
947.100, 0.160
947.200, 0.184
947.300, 0.167
947.400, 0.167
947.500, 0.155
947.600, 0.163
947.700, 0.166
947.800, 0.178
947.900, 0.167
948.000, 0.161
948.100, 0.158
948.200, 0.164
948.300, 0.174
948.400, 0.180
948.500, 0.174
948.600, 0.165
948.700, 0.164
948.800, 0.171
948.900, 0.168
949.000, 0.172
949.100, 0.178
949.200, 0.181
949.300, 0.178
949.400, 0.164
949.500, 0.181
949.600, 0.152
949.700, 0.159
949.800, 0.178
949.900, 0.162
950.000, 0.167
950.100, 0.181
950.200, 0.139
950.300, 0.159
950.400, 0.184
950.500, 0.197
950.600, 0.177
950.700, 0.186
950.800, 0.206
950.900, 0.201
951.000, 0.222
951.100, 0.193
951.200, 0.198
951.300, 0.188
951.400, 0.164
951.500, 0.171
951.600, 0.146
951.700, 0.152
951.800, 0.145
951.900, 0.163
952.000, 0.154
952.100, 0.167
952.200, 0.170
952.300, 0.184
952.400, 0.202
952.500, 0.171
952.600, 0.196
952.700, 0.188
952.800, 0.173
952.900, 0.193
953.000, 0.173
953.100, 0.222
953.200, 0.169
953.300, 0.155
953.400, 0.163
953.500, 0.190
953.600, 0.210
953.700, 0.205
953.800, 0.198
953.900, 0.194
954.000, 0.166
954.100, 0.177
954.200, 0.175
954.300, 0.184
954.400, 0.161
954.500, 0.180
954.600, 0.181
954.700, 0.140
954.800, 0.153
954.900, 0.158
955.000, 0.192
955.100, 0.193
955.200, 0.197
955.300, 0.169
955.400, 0.167
955.500, 0.175
955.600, 0.180
955.700, 0.188
955.800, 0.175
955.900, 0.178
956.000, 0.152
956.100, 0.146
956.200, 0.173
956.300, 0.166
956.400, 0.140
956.500, 0.177
956.600, 0.178
956.700, 0.170
956.800, 0.179
956.900, 0.191
957.000, 0.208
957.100, 0.203
957.200, 0.188
957.300, 0.185
957.400, 0.198
957.500, 0.202
957.600, 0.223
957.700, 0.248
957.800, 0.255
957.900, 0.248
958.000, 0.212
958.100, 0.189
958.200, 0.208
958.300, 0.235
958.400, 0.228
958.500, 0.167
958.600, 0.151
958.700, 0.191
958.800, 0.201
958.900, 0.183
959.000, 0.218
959.100, 0.213
959.200, 0.210
959.300, 0.190
959.400, 0.193
959.500, 0.191
959.600, 0.169
959.700, 0.165
959.800, 0.176
959.900, 0.174
960.000, 0.140
960.100, 0.143
960.200, 0.141
960.300, 0.159
960.400, 0.170
960.500, 0.169
960.600, 0.172
960.700, 0.176
960.800, 0.196
960.900, 0.165
961.000, 0.182
961.100, 0.183
961.200, 0.165
961.300, 0.177
961.400, 0.155
961.500, 0.195
961.600, 0.160
961.700, 0.172
961.800, 0.161
961.900, 0.190
962.000, 0.202
962.100, 0.180
962.200, 0.186
962.300, 0.174
962.400, 0.192
962.500, 0.194
962.600, 0.165
962.700, 0.156
962.800, 0.169
962.900, 0.175
963.000, 0.195
963.100, 0.179
963.200, 0.175
963.300, 0.183
963.400, 0.191
963.500, 0.186
963.600, 0.167
963.700, 0.156
963.800, 0.189
963.900, 0.226
964.000, 0.172
964.100, 0.191
964.200, 0.190
964.300, 0.168
964.400, 0.156
964.500, 0.176
964.600, 0.181
964.700, 0.192
964.800, 0.196
964.900, 0.190
965.000, 0.184
965.100, 0.178
965.200, 0.189
965.300, 0.150
965.400, 0.171
965.500, 0.140
965.600, 0.155
965.700, 0.174
965.800, 0.157
965.900, 0.171
966.000, 0.171
966.100, 0.179
966.200, 0.159
966.300, 0.177
966.400, 0.166
966.500, 0.169
966.600, 0.173
966.700, 0.158
966.800, 0.140
966.900, 0.143
967.000, 0.160
967.100, 0.151
967.200, 0.177
967.300, 0.160
967.400, 0.180
967.500, 0.207
967.600, 0.220
967.700, 0.189
967.800, 0.209
967.900, 0.163
968.000, 0.191
968.100, 0.204
968.200, 0.189
968.300, 0.167
968.400, 0.160
968.500, 0.177
968.600, 0.179
968.700, 0.196
968.800, 0.179
968.900, 0.210
969.000, 0.196
969.100, 0.171
969.200, 0.156
969.300, 0.176
969.400, 0.168
969.500, 0.171
969.600, 0.170
969.700, 0.199
969.800, 0.233
969.900, 0.204
970.000, 0.195
970.100, 0.161
970.200, 0.148
970.300, 0.158
970.400, 0.171
970.500, 0.167
970.600, 0.164
970.700, 0.157
970.800, 0.166
970.900, 0.158
971.000, 0.163
971.100, 0.145
971.200, 0.162
971.300, 0.197
971.400, 0.173
971.500, 0.179
971.600, 0.179
971.700, 0.150
971.800, 0.199
971.900, 0.194
972.000, 0.166
972.100, 0.161
972.200, 0.145
972.300, 0.149
972.400, 0.175
972.500, 0.167
972.600, 0.131
972.700, 0.148
972.800, 0.156
972.900, 0.141
973.000, 0.127
973.100, 0.140
973.200, 0.147
973.300, 0.144
973.400, 0.140
973.500, 0.148
973.600, 0.134
973.700, 0.151
973.800, 0.144
973.900, 0.159
974.000, 0.142
974.100, 0.127
974.200, 0.132
974.300, 0.142
974.400, 0.131
974.500, 0.120
974.600, 0.123
974.700, 0.129
974.800, 0.128
974.900, 0.133
975.000, 0.134
975.100, 0.134
975.200, 0.141
975.300, 0.158
975.400, 0.161
975.500, 0.163
975.600, 0.196
975.700, 0.162
975.800, 0.149
975.900, 0.146
976.000, 0.142
976.100, 0.147
976.200, 0.138
976.300, 0.162
976.400, 0.130
976.500, 0.115
976.600, 0.134
976.700, 0.165
976.800, 0.140
976.900, 0.130
977.000, 0.154
977.100, 0.162
977.200, 0.134
977.300, 0.138
977.400, 0.150
977.500, 0.135
977.600, 0.154
977.700, 0.155
977.800, 0.145
977.900, 0.144
978.000, 0.140
978.100, 0.118
978.200, 0.122
978.300, 0.133
978.400, 0.128
978.500, 0.130
978.600, 0.142
978.700, 0.161
978.800, 0.178
978.900, 0.171
979.000, 0.165
979.100, 0.168
979.200, 0.169
979.300, 0.166
979.400, 0.158
979.500, 0.146
979.600, 0.168
979.700, 0.154
979.800, 0.171
979.900, 0.153
980.000, 0.173
980.100, 0.160
980.200, 0.167
980.300, 0.154
980.400, 0.149
980.500, 0.131
980.600, 0.130
980.700, 0.148
980.800, 0.155
980.900, 0.124
981.000, 0.132
981.100, 0.140
981.200, 0.178
981.300, 0.140
981.400, 0.163
981.500, 0.147
981.600, 0.133
981.700, 0.140
981.800, 0.144
981.900, 0.139
982.000, 0.158
982.100, 0.160
982.200, 0.145
982.300, 0.151
982.400, 0.106
982.500, 0.146
982.600, 0.143
982.700, 0.148
982.800, 0.149
982.900, 0.151
983.000, 0.149
983.100, 0.156
983.200, 0.155
983.300, 0.136
983.400, 0.146
983.500, 0.173
983.600, 0.155
983.700, 0.147
983.800, 0.137
983.900, 0.139
984.000, 0.151
984.100, 0.142
984.200, 0.145
984.300, 0.139
984.400, 0.131
984.500, 0.122
984.600, 0.139
984.700, 0.138
984.800, 0.155
984.900, 0.150
985.000, 0.142
985.100, 0.140
985.200, 0.143
985.300, 0.149
985.400, 0.154
985.500, 0.133
985.600, 0.131
985.700, 0.133
985.800, 0.120
985.900, 0.120
986.000, 0.155
986.100, 0.143
986.200, 0.172
986.300, 0.169
986.400, 0.145
986.500, 0.178
986.600, 0.193
986.700, 0.195
986.800, 0.185
986.900, 0.172
987.000, 0.138
987.100, 0.185
987.200, 0.139
987.300, 0.130
987.400, 0.149
987.500, 0.143
987.600, 0.173
987.700, 0.136
987.800, 0.137
987.900, 0.153
988.000, 0.176
988.100, 0.158
988.200, 0.155
988.300, 0.150
988.400, 0.172
988.500, 0.156
988.600, 0.150
988.700, 0.128
988.800, 0.171
988.900, 0.167
989.000, 0.173
989.100, 0.197
989.200, 0.162
989.300, 0.158
989.400, 0.166
989.500, 0.207
989.600, 0.161
989.700, 0.214
989.800, 0.203
989.900, 0.171
990.000, 0.175
990.100, 0.195
990.200, 0.208
990.300, 0.204
990.400, 0.148
990.500, 0.174
990.600, 0.155
990.700, 0.157
990.800, 0.163
990.900, 0.165
991.000, 0.134
991.100, 0.165
991.200, 0.124
991.300, 0.115
991.400, 0.146
991.500, 0.158
991.600, 0.111
991.700, 0.136
991.800, 0.176
991.900, 0.155
992.000, 0.140
992.100, 0.161
992.200, 0.142
992.300, 0.131
992.400, 0.126
992.500, 0.110
992.600, 0.116
992.700, 0.118
992.800, 0.133
992.900, 0.116
993.000, 0.125
993.100, 0.133
993.200, 0.106
993.300, 0.118
993.400, 0.120
993.500, 0.104
993.600, 0.107
993.700, 0.119
993.800, 0.121
993.900, 0.142
994.000, 0.133
994.100, 0.136
994.200, 0.124
994.300, 0.138
994.400, 0.119
994.500, 0.115
994.600, 0.117
994.700, 0.114
994.800, 0.145
994.900, 0.109
995.000, 0.148
995.100, 0.132
995.200, 0.136
995.300, 0.142
995.400, 0.136
995.500, 0.163
995.600, 0.139
995.700, 0.131
995.800, 0.133
995.900, 0.149
996.000, 0.149
996.100, 0.135
996.200, 0.168
996.300, 0.136
996.400, 0.134
996.500, 0.121
996.600, 0.141
996.700, 0.165
996.800, 0.144
996.900, 0.168
997.000, 0.141
997.100, 0.128
997.200, 0.121
997.300, 0.115
997.400, 0.124
997.500, 0.122
997.600, 0.165
997.700, 0.124
997.800, 0.145
997.900, 0.124
998.000, 0.134
998.100, 0.122
998.200, 0.130
998.300, 0.121
998.400, 0.100
998.500, 0.086
998.600, 0.068
998.700, 0.081
998.800, 0.105
998.900, 0.096
999.000, 0.115
999.100, 0.106
999.200, 0.097
999.300, 0.120
999.400, 0.086
999.500, 0.108
999.600, 0.110
999.700, 0.078
999.800, 0.072
999.900, 0.009
1000.000, 0.001
