Time (ps), RMSD (nm)
0.000, 0.000
0.100, 0.257
0.200, 0.240
0.300, 0.241
0.400, 0.229
0.500, 0.256
0.600, 0.233
0.700, 0.222
0.800, 0.210
0.900, 0.238
1.000, 0.237
1.100, 0.214
1.200, 0.221
1.300, 0.222
1.400, 0.235
1.500, 0.232
1.600, 0.221
1.700, 0.238
1.800, 0.223
1.900, 0.223
2.000, 0.220
2.100, 0.228
2.200, 0.225
2.300, 0.224
2.400, 0.221
2.500, 0.213
2.600, 0.223
2.700, 0.232
2.800, 0.230
2.900, 0.216
3.000, 0.226
3.100, 0.222
3.200, 0.216
3.300, 0.218
3.400, 0.218
3.500, 0.231
3.600, 0.225
3.700, 0.214
3.800, 0.212
3.900, 0.226
4.000, 0.216
4.100, 0.212
4.200, 0.213
4.300, 0.227
4.400, 0.203
4.500, 0.220
4.600, 0.234
4.700, 0.221
4.800, 0.186
4.900, 0.207
5.000, 0.227
5.100, 0.201
5.200, 0.204
5.300, 0.219
5.400, 0.215
5.500, 0.208
5.600, 0.205
5.700, 0.208
5.800, 0.209
5.900, 0.199
6.000, 0.201
6.100, 0.218
6.200, 0.212
6.300, 0.215
6.400, 0.206
6.500, 0.211
6.600, 0.213
6.700, 0.206
6.800, 0.217
6.900, 0.227
7.000, 0.229
7.100, 0.230
7.200, 0.198
7.300, 0.227
7.400, 0.219
7.500, 0.205
7.600, 0.225
7.700, 0.219
7.800, 0.208
7.900, 0.211
8.000, 0.195
8.100, 0.209
8.200, 0.207
8.300, 0.201
8.400, 0.196
8.500, 0.183
8.600, 0.191
8.700, 0.197
8.800, 0.193
8.900, 0.202
9.000, 0.203
9.100, 0.206
9.200, 0.220
9.300, 0.203
9.400, 0.218
9.500, 0.212
9.600, 0.210
9.700, 0.207
9.800, 0.219
9.900, 0.213
10.000, 0.222
10.100, 0.225
10.200, 0.213
10.300, 0.220
10.400, 0.242
10.500, 0.235
10.600, 0.232
10.700, 0.219
10.800, 0.227
10.900, 0.225
11.000, 0.215
11.100, 0.206
11.200, 0.201
11.300, 0.186
11.400, 0.172
11.500, 0.198
11.600, 0.187
11.700, 0.192
11.800, 0.221
11.900, 0.202
12.000, 0.194
12.100, 0.208
12.200, 0.226
12.300, 0.204
12.400, 0.221
12.500, 0.229
12.600, 0.252
12.700, 0.231
12.800, 0.239
12.900, 0.197
13.000, 0.220
13.100, 0.204
13.200, 0.204
13.300, 0.225
13.400, 0.228
13.500, 0.198
13.600, 0.212
13.700, 0.219
13.800, 0.204
13.900, 0.214
14.000, 0.220
14.100, 0.215
14.200, 0.225
14.300, 0.194
14.400, 0.206
14.500, 0.247
14.600, 0.228
14.700, 0.237
14.800, 0.207
14.900, 0.214
15.000, 0.214
15.100, 0.230
15.200, 0.212
15.300, 0.214
15.400, 0.217
15.500, 0.225
15.600, 0.230
15.700, 0.222
15.800, 0.228
15.900, 0.217
16.000, 0.212
16.100, 0.207
16.200, 0.230
16.300, 0.219
16.400, 0.222
16.500, 0.214
16.600, 0.209
16.700, 0.221
16.800, 0.214
16.900, 0.216
17.000, 0.207
17.100, 0.224
17.200, 0.222
17.300, 0.231
17.400, 0.219
17.500, 0.234
17.600, 0.219
17.700, 0.223
17.800, 0.244
17.900, 0.273
18.000, 0.257
18.100, 0.269
18.200, 0.231
18.300, 0.230
18.400, 0.239
18.500, 0.218
18.600, 0.201
18.700, 0.223
18.800, 0.202
18.900, 0.217
19.000, 0.191
19.100, 0.225
19.200, 0.218
19.300, 0.206
19.400, 0.210
19.500, 0.203
19.600, 0.192
19.700, 0.212
19.800, 0.212
19.900, 0.199
20.000, 0.204
20.100, 0.221
20.200, 0.240
20.300, 0.213
20.400, 0.223
20.500, 0.227
20.600, 0.209
20.700, 0.217
20.800, 0.226
20.900, 0.214
21.000, 0.251
21.100, 0.209
21.200, 0.198
21.300, 0.208
21.400, 0.211
21.500, 0.204
21.600, 0.217
21.700, 0.228
21.800, 0.186
21.900, 0.180
22.000, 0.195
22.100, 0.195
22.200, 0.223
22.300, 0.252
22.400, 0.261
22.500, 0.240
22.600, 0.244
22.700, 0.260
22.800, 0.250
22.900, 0.256
23.000, 0.261
23.100, 0.281
23.200, 0.273
23.300, 0.277
23.400, 0.259
23.500, 0.308
23.600, 0.268
23.700, 0.293
23.800, 0.280
23.900, 0.240
24.000, 0.244
24.100, 0.227
24.200, 0.250
24.300, 0.263
24.400, 0.273
24.500, 0.288
24.600, 0.274
24.700, 0.277
24.800, 0.261
24.900, 0.285
25.000, 0.320
25.100, 0.302
25.200, 0.288
25.300, 0.260
25.400, 0.250
25.500, 0.224
25.600, 0.259
25.700, 0.231
25.800, 0.229
25.900, 0.229
26.000, 0.201
26.100, 0.219
26.200, 0.207
26.300, 0.201
26.400, 0.182
26.500, 0.210
26.600, 0.227
26.700, 0.210
26.800, 0.226
26.900, 0.234
27.000, 0.257
27.100, 0.282
27.200, 0.232
27.300, 0.224
27.400, 0.211
27.500, 0.209
27.600, 0.207
27.700, 0.197
27.800, 0.228
27.900, 0.213
28.000, 0.223
28.100, 0.234
28.200, 0.247
28.300, 0.246
28.400, 0.236
28.500, 0.222
28.600, 0.191
28.700, 0.199
28.800, 0.206
28.900, 0.202
29.000, 0.213
29.100, 0.205
29.200, 0.200
29.300, 0.210
29.400, 0.218
29.500, 0.223
29.600, 0.221
29.700, 0.215
29.800, 0.213
29.900, 0.224
30.000, 0.228
30.100, 0.222
30.200, 0.236
30.300, 0.209
30.400, 0.215
30.500, 0.192
30.600, 0.214
30.700, 0.209
30.800, 0.230
30.900, 0.208
31.000, 0.194
31.100, 0.215
31.200, 0.211
31.300, 0.186
31.400, 0.213
31.500, 0.202
31.600, 0.190
31.700, 0.204
31.800, 0.217
31.900, 0.231
32.000, 0.202
32.100, 0.207
32.200, 0.206
32.300, 0.202
32.400, 0.212
32.500, 0.211
32.600, 0.215
32.700, 0.208
32.800, 0.226
32.900, 0.221
33.000, 0.248
33.100, 0.233
33.200, 0.199
33.300, 0.216
33.400, 0.223
33.500, 0.221
33.600, 0.235
33.700, 0.243
33.800, 0.251
33.900, 0.230
34.000, 0.215
34.100, 0.226
34.200, 0.249
34.300, 0.234
34.400, 0.242
34.500, 0.230
34.600, 0.251
34.700, 0.208
34.800, 0.219
34.900, 0.215
35.000, 0.225
35.100, 0.223
35.200, 0.221
35.300, 0.224
35.400, 0.209
35.500, 0.210
35.600, 0.223
35.700, 0.228
35.800, 0.227
35.900, 0.213
36.000, 0.207
36.100, 0.206
36.200, 0.220
36.300, 0.214
36.400, 0.217
36.500, 0.217
36.600, 0.238
36.700, 0.230
36.800, 0.225
36.900, 0.227
37.000, 0.218
37.100, 0.233
37.200, 0.242
37.300, 0.218
37.400, 0.222
37.500, 0.212
37.600, 0.223
37.700, 0.233
37.800, 0.230
37.900, 0.206
38.000, 0.228
38.100, 0.224
38.200, 0.263
38.300, 0.259
38.400, 0.233
38.500, 0.224
38.600, 0.240
38.700, 0.229
38.800, 0.206
38.900, 0.226
39.000, 0.251
39.100, 0.222
39.200, 0.231
39.300, 0.227
39.400, 0.225
39.500, 0.249
39.600, 0.224
39.700, 0.217
39.800, 0.209
39.900, 0.214
40.000, 0.197
40.100, 0.211
40.200, 0.208
40.300, 0.220
40.400, 0.205
40.500, 0.219
40.600, 0.227
40.700, 0.223
40.800, 0.226
40.900, 0.219
41.000, 0.225
41.100, 0.217
41.200, 0.231
41.300, 0.226
41.400, 0.215
41.500, 0.202
41.600, 0.213
41.700, 0.212
41.800, 0.215
41.900, 0.210
42.000, 0.199
42.100, 0.202
42.200, 0.195
42.300, 0.210
42.400, 0.212
42.500, 0.203
42.600, 0.232
42.700, 0.213
42.800, 0.225
42.900, 0.230
43.000, 0.233
43.100, 0.217
43.200, 0.209
43.300, 0.209
43.400, 0.216
43.500, 0.197
43.600, 0.184
43.700, 0.208
43.800, 0.213
43.900, 0.221
44.000, 0.202
44.100, 0.206
44.200, 0.204
44.300, 0.217
44.400, 0.219
44.500, 0.213
44.600, 0.214
44.700, 0.214
44.800, 0.226
44.900, 0.208
45.000, 0.215
45.100, 0.226
45.200, 0.219
45.300, 0.225
45.400, 0.221
45.500, 0.237
45.600, 0.208
45.700, 0.236
45.800, 0.225
45.900, 0.222
46.000, 0.218
46.100, 0.208
46.200, 0.211
46.300, 0.218
46.400, 0.226
46.500, 0.223
46.600, 0.211
46.700, 0.246
46.800, 0.228
46.900, 0.229
47.000, 0.229
47.100, 0.199
47.200, 0.222
47.300, 0.210
47.400, 0.213
47.500, 0.204
47.600, 0.213
47.700, 0.225
47.800, 0.233
47.900, 0.224
48.000, 0.237
48.100, 0.237
48.200, 0.238
48.300, 0.218
48.400, 0.195
48.500, 0.211
48.600, 0.213
48.700, 0.192
48.800, 0.184
48.900, 0.173
49.000, 0.184
49.100, 0.199
49.200, 0.205
49.300, 0.216
49.400, 0.207
49.500, 0.205
49.600, 0.210
49.700, 0.190
49.800, 0.192
49.900, 0.225
50.000, 0.214
50.100, 0.219
50.200, 0.191
50.300, 0.198
50.400, 0.201
50.500, 0.203
50.600, 0.196
50.700, 0.201
50.800, 0.204
50.900, 0.201
51.000, 0.195
51.100, 0.193
51.200, 0.187
51.300, 0.193
51.400, 0.181
51.500, 0.178
51.600, 0.187
51.700, 0.194
51.800, 0.175
51.900, 0.186
52.000, 0.187
52.100, 0.199
52.200, 0.206
52.300, 0.203
52.400, 0.214
52.500, 0.202
52.600, 0.206
52.700, 0.191
52.800, 0.198
52.900, 0.200
53.000, 0.211
53.100, 0.211
53.200, 0.208
53.300, 0.192
53.400, 0.199
53.500, 0.198
53.600, 0.193
53.700, 0.207
53.800, 0.211
53.900, 0.209
54.000, 0.216
54.100, 0.211
54.200, 0.227
54.300, 0.223
54.400, 0.203
54.500, 0.206
54.600, 0.216
54.700, 0.213
54.800, 0.199
54.900, 0.196
55.000, 0.213
55.100, 0.214
55.200, 0.206
55.300, 0.195
55.400, 0.197
55.500, 0.189
55.600, 0.209
55.700, 0.189
55.800, 0.191
55.900, 0.198
56.000, 0.201
56.100, 0.211
56.200, 0.207
56.300, 0.191
56.400, 0.185
56.500, 0.198
56.600, 0.184
56.700, 0.181
56.800, 0.182
56.900, 0.188
57.000, 0.186
57.100, 0.190
57.200, 0.187
57.300, 0.179
57.400, 0.192
57.500, 0.198
57.600, 0.206
57.700, 0.203
57.800, 0.194
57.900, 0.184
58.000, 0.186
58.100, 0.185
58.200, 0.198
58.300, 0.181
58.400, 0.210
58.500, 0.200
58.600, 0.197
58.700, 0.190
58.800, 0.184
58.900, 0.206
59.000, 0.193
59.100, 0.185
59.200, 0.206
59.300, 0.208
59.400, 0.202
59.500, 0.218
59.600, 0.234
59.700, 0.230
59.800, 0.203
59.900, 0.211
60.000, 0.208
60.100, 0.210
60.200, 0.215
60.300, 0.229
60.400, 0.236
60.500, 0.228
60.600, 0.225
60.700, 0.221
60.800, 0.226
60.900, 0.252
61.000, 0.226
61.100, 0.242
61.200, 0.228
61.300, 0.217
61.400, 0.213
61.500, 0.219
61.600, 0.226
61.700, 0.222
61.800, 0.226
61.900, 0.244
62.000, 0.239
62.100, 0.216
62.200, 0.228
62.300, 0.244
62.400, 0.226
62.500, 0.225
62.600, 0.230
62.700, 0.229
62.800, 0.210
62.900, 0.225
63.000, 0.212
63.100, 0.242
63.200, 0.247
63.300, 0.244
63.400, 0.236
63.500, 0.254
63.600, 0.246
63.700, 0.241
63.800, 0.213
63.900, 0.255
64.000, 0.248
64.100, 0.232
64.200, 0.238
64.300, 0.201
64.400, 0.209
64.500, 0.214
64.600, 0.224
64.700, 0.210
64.800, 0.205
64.900, 0.212
65.000, 0.228
65.100, 0.243
65.200, 0.236
65.300, 0.244
65.400, 0.227
65.500, 0.220
65.600, 0.240
65.700, 0.220
65.800, 0.227
65.900, 0.236
66.000, 0.212
66.100, 0.212
66.200, 0.209
66.300, 0.212
66.400, 0.211
66.500, 0.217
66.600, 0.200
66.700, 0.225
66.800, 0.227
66.900, 0.239
67.000, 0.237
67.100, 0.236
67.200, 0.223
67.300, 0.239
67.400, 0.241
67.500, 0.210
67.600, 0.219
67.700, 0.206
67.800, 0.218
67.900, 0.214
68.000, 0.219
68.100, 0.238
68.200, 0.224
68.300, 0.224
68.400, 0.215
68.500, 0.224
68.600, 0.218
68.700, 0.220
68.800, 0.219
68.900, 0.224
69.000, 0.213
69.100, 0.212
69.200, 0.212
69.300, 0.216
69.400, 0.220
69.500, 0.226
69.600, 0.230
69.700, 0.211
69.800, 0.218
69.900, 0.246
70.000, 0.227
70.100, 0.223
70.200, 0.217
70.300, 0.214
70.400, 0.209
70.500, 0.218
70.600, 0.220
70.700, 0.202
70.800, 0.207
70.900, 0.196
71.000, 0.223
71.100, 0.211
71.200, 0.245
71.300, 0.206
71.400, 0.226
71.500, 0.234
71.600, 0.207
71.700, 0.214
71.800, 0.234
71.900, 0.210
72.000, 0.224
72.100, 0.206
72.200, 0.234
72.300, 0.205
72.400, 0.236
72.500, 0.234
72.600, 0.214
72.700, 0.262
72.800, 0.207
72.900, 0.239
73.000, 0.238
73.100, 0.239
73.200, 0.203
73.300, 0.202
73.400, 0.196
73.500, 0.203
73.600, 0.222
73.700, 0.222
73.800, 0.208
73.900, 0.207
74.000, 0.221
74.100, 0.198
74.200, 0.208
74.300, 0.200
74.400, 0.198
74.500, 0.208
74.600, 0.191
74.700, 0.194
74.800, 0.204
74.900, 0.214
75.000, 0.197
75.100, 0.197
75.200, 0.215
75.300, 0.195
75.400, 0.176
75.500, 0.170
75.600, 0.200
75.700, 0.220
75.800, 0.208
75.900, 0.201
76.000, 0.191
76.100, 0.194
76.200, 0.185
76.300, 0.187
76.400, 0.194
76.500, 0.200
76.600, 0.185
76.700, 0.171
76.800, 0.179
76.900, 0.177
77.000, 0.184
77.100, 0.194
77.200, 0.182
77.300, 0.190
77.400, 0.181
77.500, 0.178
77.600, 0.175
77.700, 0.190
77.800, 0.192
77.900, 0.184
78.000, 0.179
78.100, 0.188
78.200, 0.193
78.300, 0.178
78.400, 0.195
78.500, 0.178
78.600, 0.175
78.700, 0.192
78.800, 0.177
78.900, 0.176
79.000, 0.191
79.100, 0.186
79.200, 0.199
79.300, 0.200
79.400, 0.189
79.500, 0.186
79.600, 0.182
79.700, 0.177
79.800, 0.182
79.900, 0.188
80.000, 0.176
80.100, 0.178
80.200, 0.185
80.300, 0.174
80.400, 0.174
80.500, 0.214
80.600, 0.196
80.700, 0.187
80.800, 0.211
80.900, 0.213
81.000, 0.223
81.100, 0.212
81.200, 0.207
81.300, 0.197
81.400, 0.204
81.500, 0.202
81.600, 0.210
81.700, 0.232
81.800, 0.217
81.900, 0.222
82.000, 0.208
82.100, 0.193
82.200, 0.204
82.300, 0.220
82.400, 0.243
82.500, 0.207
82.600, 0.240
82.700, 0.227
82.800, 0.204
82.900, 0.237
83.000, 0.215
83.100, 0.209
83.200, 0.201
83.300, 0.206
83.400, 0.204
83.500, 0.208
83.600, 0.214
83.700, 0.203
83.800, 0.215
83.900, 0.237
84.000, 0.212
84.100, 0.210
84.200, 0.199
84.300, 0.201
84.400, 0.208
84.500, 0.196
84.600, 0.196
84.700, 0.214
84.800, 0.229
84.900, 0.244
85.000, 0.229
85.100, 0.255
85.200, 0.230
85.300, 0.240
85.400, 0.248
85.500, 0.233
85.600, 0.243
85.700, 0.214
85.800, 0.242
85.900, 0.217
86.000, 0.252
86.100, 0.233
86.200, 0.242
86.300, 0.256
86.400, 0.257
86.500, 0.256
86.600, 0.223
86.700, 0.214
86.800, 0.237
86.900, 0.243
87.000, 0.227
87.100, 0.260
87.200, 0.244
87.300, 0.263
87.400, 0.246
87.500, 0.241
87.600, 0.251
87.700, 0.233
87.800, 0.243
87.900, 0.239
88.000, 0.227
88.100, 0.213
88.200, 0.247
88.300, 0.237
88.400, 0.239
88.500, 0.220
88.600, 0.246
88.700, 0.219
88.800, 0.222
88.900, 0.200
89.000, 0.249
89.100, 0.260
89.200, 0.230
89.300, 0.253
89.400, 0.230
89.500, 0.212
89.600, 0.233
89.700, 0.271
89.800, 0.220
89.900, 0.215
90.000, 0.219
90.100, 0.225
90.200, 0.199
90.300, 0.211
90.400, 0.220
90.500, 0.227
90.600, 0.237
90.700, 0.248
90.800, 0.229
90.900, 0.218
91.000, 0.241
91.100, 0.209
91.200, 0.251
91.300, 0.229
91.400, 0.269
91.500, 0.237
91.600, 0.228
91.700, 0.255
91.800, 0.247
91.900, 0.246
92.000, 0.216
92.100, 0.208
92.200, 0.210
92.300, 0.202
92.400, 0.219
92.500, 0.224
92.600, 0.217
92.700, 0.204
92.800, 0.235
92.900, 0.224
93.000, 0.234
93.100, 0.219
93.200, 0.233
93.300, 0.247
93.400, 0.251
93.500, 0.244
93.600, 0.242
93.700, 0.239
93.800, 0.261
93.900, 0.252
94.000, 0.248
94.100, 0.242
94.200, 0.243
94.300, 0.259
94.400, 0.262
94.500, 0.233
94.600, 0.209
94.700, 0.219
94.800, 0.232
94.900, 0.237
95.000, 0.218
95.100, 0.223
95.200, 0.234
95.300, 0.232
95.400, 0.252
95.500, 0.232
95.600, 0.231
95.700, 0.230
95.800, 0.239
95.900, 0.246
96.000, 0.225
96.100, 0.244
96.200, 0.238
96.300, 0.236
96.400, 0.237
96.500, 0.237
96.600, 0.226
96.700, 0.227
96.800, 0.244
96.900, 0.225
97.000, 0.226
97.100, 0.207
97.200, 0.216
97.300, 0.255
97.400, 0.248
97.500, 0.255
97.600, 0.235
97.700, 0.210
97.800, 0.231
97.900, 0.267
98.000, 0.264
98.100, 0.236
98.200, 0.255
98.300, 0.241
98.400, 0.251
98.500, 0.240
98.600, 0.244
98.700, 0.240
98.800, 0.245
98.900, 0.243
99.000, 0.254
99.100, 0.228
99.200, 0.226
99.300, 0.235
99.400, 0.250
99.500, 0.250
99.600, 0.218
99.700, 0.220
99.800, 0.239
99.900, 0.219
100.000, 0.204
100.100, 0.200
100.200, 0.209
100.300, 0.222
100.400, 0.211
100.500, 0.214
100.600, 0.222
100.700, 0.234
100.800, 0.235
100.900, 0.221
101.000, 0.209
101.100, 0.215
101.200, 0.226
101.300, 0.206
101.400, 0.242
101.500, 0.220
101.600, 0.219
101.700, 0.232
101.800, 0.230
101.900, 0.208
102.000, 0.212
102.100, 0.239
102.200, 0.231
102.300, 0.234
102.400, 0.232
102.500, 0.238
102.600, 0.232
102.700, 0.243
102.800, 0.237
102.900, 0.206
103.000, 0.228
103.100, 0.228
103.200, 0.240
103.300, 0.214
103.400, 0.226
103.500, 0.263
103.600, 0.259
103.700, 0.264
103.800, 0.241
103.900, 0.246
104.000, 0.247
104.100, 0.249
104.200, 0.241
104.300, 0.240
104.400, 0.241
104.500, 0.240
104.600, 0.264
104.700, 0.260
104.800, 0.248
104.900, 0.253
105.000, 0.239
105.100, 0.239
105.200, 0.242
105.300, 0.254
105.400, 0.254
105.500, 0.239
105.600, 0.231
105.700, 0.225
105.800, 0.210
105.900, 0.210
106.000, 0.224
106.100, 0.229
106.200, 0.241
106.300, 0.243
106.400, 0.237
106.500, 0.252
106.600, 0.240
106.700, 0.248
106.800, 0.198
106.900, 0.219
107.000, 0.228
107.100, 0.210
107.200, 0.211
107.300, 0.213
107.400, 0.225
107.500, 0.221
107.600, 0.216
107.700, 0.244
107.800, 0.235
107.900, 0.230
108.000, 0.247
108.100, 0.248
108.200, 0.238
108.300, 0.220
108.400, 0.234
108.500, 0.237
108.600, 0.229
108.700, 0.238
108.800, 0.247
108.900, 0.241
109.000, 0.246
109.100, 0.237
109.200, 0.238
109.300, 0.226
109.400, 0.241
109.500, 0.221
109.600, 0.227
109.700, 0.229
109.800, 0.209
109.900, 0.205
110.000, 0.181
110.100, 0.197
110.200, 0.195
110.300, 0.207
110.400, 0.203
110.500, 0.208
110.600, 0.207
110.700, 0.196
110.800, 0.200
110.900, 0.217
111.000, 0.203
111.100, 0.204
111.200, 0.199
111.300, 0.202
111.400, 0.201
111.500, 0.213
111.600, 0.219
111.700, 0.196
111.800, 0.192
111.900, 0.213
112.000, 0.206
112.100, 0.209
112.200, 0.198
112.300, 0.210
112.400, 0.213
112.500, 0.238
112.600, 0.207
112.700, 0.204
112.800, 0.233
112.900, 0.238
113.000, 0.228
113.100, 0.223
113.200, 0.229
113.300, 0.251
113.400, 0.245
113.500, 0.266
113.600, 0.266
113.700, 0.247
113.800, 0.245
113.900, 0.243
114.000, 0.237
114.100, 0.212
114.200, 0.241
114.300, 0.215
114.400, 0.247
114.500, 0.236
114.600, 0.241
114.700, 0.236
114.800, 0.223
114.900, 0.222
115.000, 0.219
115.100, 0.221
115.200, 0.217
115.300, 0.224
115.400, 0.230
115.500, 0.253
115.600, 0.224
115.700, 0.214
115.800, 0.207
115.900, 0.217
116.000, 0.213
116.100, 0.229
116.200, 0.220
116.300, 0.223
116.400, 0.232
116.500, 0.233
116.600, 0.221
116.700, 0.224
116.800, 0.250
116.900, 0.225
117.000, 0.219
117.100, 0.206
117.200, 0.195
117.300, 0.220
117.400, 0.222
117.500, 0.226
117.600, 0.233
117.700, 0.240
117.800, 0.215
117.900, 0.228
118.000, 0.227
118.100, 0.227
118.200, 0.228
118.300, 0.238
118.400, 0.253
118.500, 0.260
118.600, 0.229
118.700, 0.220
118.800, 0.236
118.900, 0.224
119.000, 0.217
119.100, 0.218
119.200, 0.207
119.300, 0.226
119.400, 0.211
119.500, 0.205
119.600, 0.224
119.700, 0.239
119.800, 0.220
119.900, 0.225
120.000, 0.224
120.100, 0.232
120.200, 0.228
120.300, 0.234
120.400, 0.212
120.500, 0.196
120.600, 0.188
120.700, 0.214
120.800, 0.218
120.900, 0.215
121.000, 0.225
121.100, 0.213
121.200, 0.217
121.300, 0.231
121.400, 0.245
121.500, 0.221
121.600, 0.236
121.700, 0.229
121.800, 0.207
121.900, 0.200
122.000, 0.229
122.100, 0.239
122.200, 0.216
122.300, 0.212
122.400, 0.209
122.500, 0.212
122.600, 0.206
122.700, 0.203
122.800, 0.210
122.900, 0.207
123.000, 0.214
123.100, 0.222
123.200, 0.231
123.300, 0.233
123.400, 0.225
123.500, 0.213
123.600, 0.190
123.700, 0.197
123.800, 0.183
123.900, 0.190
124.000, 0.182
124.100, 0.162
124.200, 0.196
124.300, 0.189
124.400, 0.191
124.500, 0.192
124.600, 0.202
124.700, 0.206
124.800, 0.210
124.900, 0.224
125.000, 0.258
125.100, 0.237
125.200, 0.222
125.300, 0.207
125.400, 0.223
125.500, 0.219
125.600, 0.230
125.700, 0.234
125.800, 0.239
125.900, 0.220
126.000, 0.206
126.100, 0.209
126.200, 0.204
126.300, 0.225
126.400, 0.208
126.500, 0.209
126.600, 0.225
126.700, 0.218
126.800, 0.211
126.900, 0.232
127.000, 0.205
127.100, 0.228
127.200, 0.206
127.300, 0.221
127.400, 0.214
127.500, 0.211
127.600, 0.211
127.700, 0.213
127.800, 0.212
127.900, 0.206
128.000, 0.207
128.100, 0.222
128.200, 0.216
128.300, 0.222
128.400, 0.206
128.500, 0.210
128.600, 0.203
128.700, 0.179
128.800, 0.194
128.900, 0.208
129.000, 0.206
129.100, 0.196
129.200, 0.207
129.300, 0.206
129.400, 0.186
129.500, 0.211
129.600, 0.207
129.700, 0.204
129.800, 0.209
129.900, 0.188
130.000, 0.198
130.100, 0.199
130.200, 0.212
130.300, 0.195
130.400, 0.212
130.500, 0.224
130.600, 0.206
130.700, 0.204
130.800, 0.218
130.900, 0.210
131.000, 0.213
131.100, 0.225
131.200, 0.228
131.300, 0.235
131.400, 0.212
131.500, 0.229
131.600, 0.240
131.700, 0.260
131.800, 0.246
131.900, 0.223
132.000, 0.202
132.100, 0.188
132.200, 0.193
132.300, 0.207
132.400, 0.197
132.500, 0.186
132.600, 0.198
132.700, 0.208
132.800, 0.222
132.900, 0.190
133.000, 0.200
133.100, 0.207
133.200, 0.205
133.300, 0.204
133.400, 0.203
133.500, 0.207
133.600, 0.206
133.700, 0.216
133.800, 0.215
133.900, 0.202
134.000, 0.213
134.100, 0.216
134.200, 0.214
134.300, 0.221
134.400, 0.246
134.500, 0.222
134.600, 0.207
134.700, 0.219
134.800, 0.201
134.900, 0.201
135.000, 0.196
135.100, 0.196
135.200, 0.191
135.300, 0.202
135.400, 0.204
135.500, 0.199
135.600, 0.239
135.700, 0.238
135.800, 0.224
135.900, 0.210
136.000, 0.208
136.100, 0.196
136.200, 0.187
136.300, 0.194
136.400, 0.182
136.500, 0.201
136.600, 0.207
136.700, 0.214
136.800, 0.202
136.900, 0.194
137.000, 0.195
137.100, 0.200
137.200, 0.204
137.300, 0.234
137.400, 0.215
137.500, 0.221
137.600, 0.200
137.700, 0.200
137.800, 0.211
137.900, 0.200
138.000, 0.206
138.100, 0.199
138.200, 0.185
138.300, 0.173
138.400, 0.183
138.500, 0.174
138.600, 0.214
138.700, 0.183
138.800, 0.182
138.900, 0.196
139.000, 0.186
139.100, 0.178
139.200, 0.175
139.300, 0.184
139.400, 0.181
139.500, 0.178
139.600, 0.186
139.700, 0.196
139.800, 0.193
139.900, 0.190
140.000, 0.187
140.100, 0.196
140.200, 0.194
140.300, 0.210
140.400, 0.199
140.500, 0.210
140.600, 0.206
140.700, 0.219
140.800, 0.210
140.900, 0.195
141.000, 0.197
141.100, 0.210
141.200, 0.213
141.300, 0.217
141.400, 0.222
141.500, 0.227
141.600, 0.232
141.700, 0.249
141.800, 0.244
141.900, 0.231
142.000, 0.215
142.100, 0.226
142.200, 0.216
142.300, 0.212
142.400, 0.227
142.500, 0.218
142.600, 0.229
142.700, 0.215
142.800, 0.214
142.900, 0.227
143.000, 0.221
143.100, 0.239
143.200, 0.209
143.300, 0.220
143.400, 0.216
143.500, 0.204
143.600, 0.226
143.700, 0.212
143.800, 0.228
143.900, 0.215
144.000, 0.224
144.100, 0.217
144.200, 0.216
144.300, 0.206
144.400, 0.197
144.500, 0.182
144.600, 0.182
144.700, 0.197
144.800, 0.205
144.900, 0.211
145.000, 0.206
145.100, 0.208
145.200, 0.205
145.300, 0.217
145.400, 0.242
145.500, 0.234
145.600, 0.227
145.700, 0.269
145.800, 0.229
145.900, 0.231
146.000, 0.242
146.100, 0.213
146.200, 0.243
146.300, 0.240
146.400, 0.212
146.500, 0.231
146.600, 0.217
146.700, 0.228
146.800, 0.198
146.900, 0.213
147.000, 0.207
147.100, 0.196
147.200, 0.200
147.300, 0.192
147.400, 0.199
147.500, 0.214
147.600, 0.201
147.700, 0.199
147.800, 0.207
147.900, 0.203
148.000, 0.216
148.100, 0.220
148.200, 0.226
148.300, 0.220
148.400, 0.228
148.500, 0.222
148.600, 0.202
148.700, 0.206
148.800, 0.202
148.900, 0.205
149.000, 0.204
149.100, 0.210
149.200, 0.202
149.300, 0.190
149.400, 0.204
149.500, 0.213
149.600, 0.212
149.700, 0.212
149.800, 0.201
149.900, 0.199
150.000, 0.197
150.100, 0.215
150.200, 0.229
150.300, 0.231
150.400, 0.215
150.500, 0.198
150.600, 0.206
150.700, 0.208
150.800, 0.203
150.900, 0.216
151.000, 0.198
151.100, 0.210
151.200, 0.196
151.300, 0.208
151.400, 0.200
151.500, 0.204
151.600, 0.194
151.700, 0.209
151.800, 0.197
151.900, 0.199
152.000, 0.194
152.100, 0.186
152.200, 0.188
152.300, 0.192
152.400, 0.206
152.500, 0.213
152.600, 0.183
152.700, 0.208
152.800, 0.208
152.900, 0.214
153.000, 0.216
153.100, 0.234
153.200, 0.226
153.300, 0.228
153.400, 0.259
153.500, 0.239
153.600, 0.229
153.700, 0.217
153.800, 0.219
153.900, 0.187
154.000, 0.191
154.100, 0.201
154.200, 0.200
154.300, 0.191
154.400, 0.204
154.500, 0.200
154.600, 0.202
154.700, 0.246
154.800, 0.215
154.900, 0.211
155.000, 0.201
155.100, 0.220
155.200, 0.206
155.300, 0.202
155.400, 0.198
155.500, 0.216
155.600, 0.224
155.700, 0.213
155.800, 0.194
155.900, 0.208
156.000, 0.204
156.100, 0.197
156.200, 0.190
156.300, 0.204
156.400, 0.189
156.500, 0.218
156.600, 0.207
156.700, 0.204
156.800, 0.226
156.900, 0.215
157.000, 0.226
157.100, 0.225
157.200, 0.229
157.300, 0.230
157.400, 0.204
157.500, 0.191
157.600, 0.193
157.700, 0.188
157.800, 0.191
157.900, 0.188
158.000, 0.226
158.100, 0.216
158.200, 0.220
158.300, 0.210
158.400, 0.213
158.500, 0.192
158.600, 0.196
158.700, 0.209
158.800, 0.200
158.900, 0.204
159.000, 0.215
159.100, 0.203
159.200, 0.222
159.300, 0.209
159.400, 0.200
159.500, 0.209
159.600, 0.230
159.700, 0.221
159.800, 0.242
159.900, 0.202
160.000, 0.218
160.100, 0.200
160.200, 0.196
160.300, 0.201
160.400, 0.189
160.500, 0.196
160.600, 0.194
160.700, 0.205
160.800, 0.233
160.900, 0.230
161.000, 0.221
161.100, 0.214
161.200, 0.209
161.300, 0.210
161.400, 0.211
161.500, 0.227
161.600, 0.225
161.700, 0.240
161.800, 0.233
161.900, 0.221
162.000, 0.202
162.100, 0.195
162.200, 0.197
162.300, 0.206
162.400, 0.205
162.500, 0.205
162.600, 0.190
162.700, 0.207
162.800, 0.206
162.900, 0.206
163.000, 0.210
163.100, 0.221
163.200, 0.215
163.300, 0.210
163.400, 0.210
163.500, 0.198
163.600, 0.198
163.700, 0.204
163.800, 0.202
163.900, 0.205
164.000, 0.201
164.100, 0.188
164.200, 0.218
164.300, 0.221
164.400, 0.223
164.500, 0.215
164.600, 0.193
164.700, 0.188
164.800, 0.204
164.900, 0.191
165.000, 0.187
165.100, 0.185
165.200, 0.178
165.300, 0.194
165.400, 0.179
165.500, 0.183
165.600, 0.182
165.700, 0.177
165.800, 0.199
165.900, 0.181
166.000, 0.184
166.100, 0.186
166.200, 0.206
166.300, 0.184
166.400, 0.198
166.500, 0.184
166.600, 0.186
166.700, 0.195
166.800, 0.198
166.900, 0.205
167.000, 0.201
167.100, 0.194
167.200, 0.180
167.300, 0.198
167.400, 0.205
167.500, 0.202
167.600, 0.199
167.700, 0.192
167.800, 0.208
167.900, 0.201
168.000, 0.181
168.100, 0.197
168.200, 0.206
168.300, 0.189
168.400, 0.205
168.500, 0.195
168.600, 0.185
168.700, 0.194
168.800, 0.203
168.900, 0.228
169.000, 0.215
169.100, 0.213
169.200, 0.214
169.300, 0.219
169.400, 0.206
169.500, 0.198
169.600, 0.213
169.700, 0.200
169.800, 0.212
169.900, 0.231
170.000, 0.214
170.100, 0.187
170.200, 0.190
170.300, 0.196
170.400, 0.181
170.500, 0.192
170.600, 0.193
170.700, 0.184
170.800, 0.198
170.900, 0.183
171.000, 0.193
171.100, 0.218
171.200, 0.207
171.300, 0.222
171.400, 0.218
171.500, 0.212
171.600, 0.199
171.700, 0.207
171.800, 0.211
171.900, 0.200
172.000, 0.210
172.100, 0.198
172.200, 0.211
172.300, 0.216
172.400, 0.220
172.500, 0.215
172.600, 0.209
172.700, 0.216
172.800, 0.211
172.900, 0.215
173.000, 0.212
173.100, 0.200
173.200, 0.194
173.300, 0.197
173.400, 0.198
173.500, 0.202
173.600, 0.224
173.700, 0.215
173.800, 0.213
173.900, 0.189
174.000, 0.204
174.100, 0.187
174.200, 0.183
174.300, 0.200
174.400, 0.194
174.500, 0.197
174.600, 0.203
174.700, 0.200
174.800, 0.197
174.900, 0.214
175.000, 0.212
175.100, 0.226
175.200, 0.212
175.300, 0.194
175.400, 0.218
175.500, 0.208
175.600, 0.212
175.700, 0.207
175.800, 0.215
175.900, 0.215
176.000, 0.240
176.100, 0.248
176.200, 0.231
176.300, 0.229
176.400, 0.222
176.500, 0.223
176.600, 0.234
176.700, 0.243
176.800, 0.233
176.900, 0.247
177.000, 0.231
177.100, 0.224
177.200, 0.222
177.300, 0.200
177.400, 0.212
177.500, 0.232
177.600, 0.201
177.700, 0.208
177.800, 0.222
177.900, 0.211
178.000, 0.210
178.100, 0.205
178.200, 0.202
178.300, 0.186
178.400, 0.229
178.500, 0.222
178.600, 0.213
178.700, 0.213
178.800, 0.204
178.900, 0.215
179.000, 0.214
179.100, 0.241
179.200, 0.206
179.300, 0.227
179.400, 0.235
179.500, 0.220
179.600, 0.215
179.700, 0.202
179.800, 0.210
179.900, 0.205
180.000, 0.218
180.100, 0.221
180.200, 0.207
180.300, 0.207
180.400, 0.218
180.500, 0.205
180.600, 0.187
180.700, 0.200
180.800, 0.204
180.900, 0.207
181.000, 0.198
181.100, 0.199
181.200, 0.192
181.300, 0.208
181.400, 0.204
181.500, 0.207
181.600, 0.215
181.700, 0.191
181.800, 0.211
181.900, 0.194
182.000, 0.199
182.100, 0.207
182.200, 0.183
182.300, 0.202
182.400, 0.218
182.500, 0.214
182.600, 0.222
182.700, 0.182
182.800, 0.190
182.900, 0.178
183.000, 0.186
183.100, 0.187
183.200, 0.178
183.300, 0.179
183.400, 0.177
183.500, 0.183
183.600, 0.174
183.700, 0.186
183.800, 0.169
183.900, 0.203
184.000, 0.186
184.100, 0.183
184.200, 0.179
184.300, 0.177
184.400, 0.177
184.500, 0.180
184.600, 0.191
184.700, 0.211
184.800, 0.184
184.900, 0.167
185.000, 0.184
185.100, 0.163
185.200, 0.222
185.300, 0.218
185.400, 0.193
185.500, 0.201
185.600, 0.201
185.700, 0.221
185.800, 0.205
185.900, 0.211
186.000, 0.200
186.100, 0.190
186.200, 0.193
186.300, 0.201
186.400, 0.215
186.500, 0.194
186.600, 0.220
186.700, 0.235
186.800, 0.212
186.900, 0.209
187.000, 0.204
187.100, 0.221
187.200, 0.213
187.300, 0.231
187.400, 0.213
187.500, 0.217
187.600, 0.216
187.700, 0.212
187.800, 0.215
187.900, 0.217
188.000, 0.219
188.100, 0.206
188.200, 0.211
188.300, 0.209
188.400, 0.208
188.500, 0.211
188.600, 0.200
188.700, 0.220
188.800, 0.214
188.900, 0.233
189.000, 0.217
189.100, 0.221
189.200, 0.238
189.300, 0.231
189.400, 0.208
189.500, 0.202
189.600, 0.202
189.700, 0.202
189.800, 0.198
189.900, 0.179
190.000, 0.206
190.100, 0.189
190.200, 0.185
190.300, 0.192
190.400, 0.194
190.500, 0.203
190.600, 0.215
190.700, 0.211
190.800, 0.197
190.900, 0.196
191.000, 0.201
191.100, 0.198
191.200, 0.198
191.300, 0.205
191.400, 0.210
191.500, 0.199
191.600, 0.210
191.700, 0.223
191.800, 0.192
191.900, 0.183
192.000, 0.197
192.100, 0.191
192.200, 0.199
192.300, 0.211
192.400, 0.196
192.500, 0.215
192.600, 0.214
192.700, 0.202
192.800, 0.194
192.900, 0.200
193.000, 0.192
193.100, 0.210
193.200, 0.195
193.300, 0.215
193.400, 0.217
193.500, 0.199
193.600, 0.229
193.700, 0.202
193.800, 0.204
193.900, 0.191
194.000, 0.205
194.100, 0.187
194.200, 0.220
194.300, 0.202
194.400, 0.222
194.500, 0.203
194.600, 0.207
194.700, 0.201
194.800, 0.194
194.900, 0.208
195.000, 0.213
195.100, 0.211
195.200, 0.207
195.300, 0.222
195.400, 0.225
195.500, 0.212
195.600, 0.204
195.700, 0.203
195.800, 0.197
195.900, 0.191
196.000, 0.191
196.100, 0.193
196.200, 0.220
196.300, 0.209
196.400, 0.209
196.500, 0.218
196.600, 0.211
196.700, 0.207
196.800, 0.201
196.900, 0.199
197.000, 0.188
197.100, 0.193
197.200, 0.208
197.300, 0.199
197.400, 0.212
197.500, 0.210
197.600, 0.213
197.700, 0.202
197.800, 0.209
197.900, 0.192
198.000, 0.211
198.100, 0.199
198.200, 0.220
198.300, 0.247
198.400, 0.223
198.500, 0.221
198.600, 0.210
198.700, 0.227
198.800, 0.219
198.900, 0.209
199.000, 0.213
199.100, 0.212
199.200, 0.230
199.300, 0.218
199.400, 0.234
199.500, 0.237
199.600, 0.212
199.700, 0.238
199.800, 0.224
199.900, 0.209
200.000, 0.221
200.100, 0.195
200.200, 0.194
200.300, 0.222
200.400, 0.226
200.500, 0.212
200.600, 0.229
200.700, 0.201
200.800, 0.237
200.900, 0.239
201.000, 0.205
201.100, 0.221
201.200, 0.218
201.300, 0.219
201.400, 0.237
201.500, 0.213
201.600, 0.212
201.700, 0.216
201.800, 0.233
201.900, 0.211
202.000, 0.236
202.100, 0.221
202.200, 0.203
202.300, 0.210
202.400, 0.211
202.500, 0.221
202.600, 0.225
202.700, 0.217
202.800, 0.201
202.900, 0.191
203.000, 0.213
203.100, 0.219
203.200, 0.218
203.300, 0.228
203.400, 0.211
203.500, 0.206
203.600, 0.195
203.700, 0.187
203.800, 0.205
203.900, 0.206
204.000, 0.212
204.100, 0.213
204.200, 0.217
204.300, 0.204
204.400, 0.220
204.500, 0.218
204.600, 0.201
204.700, 0.208
204.800, 0.228
204.900, 0.241
205.000, 0.216
205.100, 0.218
205.200, 0.228
205.300, 0.202
205.400, 0.224
205.500, 0.211
205.600, 0.212
205.700, 0.212
205.800, 0.209
205.900, 0.229
206.000, 0.221
206.100, 0.201
206.200, 0.208
206.300, 0.203
206.400, 0.208
206.500, 0.223
206.600, 0.217
206.700, 0.207
206.800, 0.197
206.900, 0.206
207.000, 0.206
207.100, 0.206
207.200, 0.204
207.300, 0.228
207.400, 0.220
207.500, 0.222
207.600, 0.215
207.700, 0.226
207.800, 0.201
207.900, 0.201
208.000, 0.202
208.100, 0.222
208.200, 0.211
208.300, 0.209
208.400, 0.223
208.500, 0.201
208.600, 0.203
208.700, 0.218
208.800, 0.223
208.900, 0.236
209.000, 0.238
209.100, 0.209
209.200, 0.215
209.300, 0.206
209.400, 0.219
209.500, 0.208
209.600, 0.192
209.700, 0.215
209.800, 0.239
209.900, 0.225
210.000, 0.218
210.100, 0.235
210.200, 0.208
210.300, 0.227
210.400, 0.231
210.500, 0.233
210.600, 0.204
210.700, 0.212
210.800, 0.215
210.900, 0.223
211.000, 0.213
211.100, 0.212
211.200, 0.229
211.300, 0.236
211.400, 0.230
211.500, 0.206
211.600, 0.220
211.700, 0.199
211.800, 0.197
211.900, 0.203
212.000, 0.206
212.100, 0.213
212.200, 0.218
212.300, 0.213
212.400, 0.223
212.500, 0.225
212.600, 0.227
212.700, 0.217
212.800, 0.216
212.900, 0.197
213.000, 0.196
213.100, 0.213
213.200, 0.220
213.300, 0.224
213.400, 0.219
213.500, 0.250
213.600, 0.208
213.700, 0.216
213.800, 0.209
213.900, 0.222
214.000, 0.201
214.100, 0.200
214.200, 0.206
214.300, 0.210
214.400, 0.212
214.500, 0.212
214.600, 0.226
214.700, 0.217
214.800, 0.214
214.900, 0.198
215.000, 0.193
215.100, 0.209
215.200, 0.220
215.300, 0.220
215.400, 0.237
215.500, 0.227
215.600, 0.219
215.700, 0.205
215.800, 0.221
215.900, 0.213
216.000, 0.218
216.100, 0.230
216.200, 0.225
216.300, 0.230
216.400, 0.238
216.500, 0.225
216.600, 0.227
216.700, 0.244
216.800, 0.238
216.900, 0.230
217.000, 0.228
217.100, 0.235
217.200, 0.232
217.300, 0.230
217.400, 0.222
217.500, 0.228
217.600, 0.244
217.700, 0.214
217.800, 0.218
217.900, 0.233
218.000, 0.239
218.100, 0.245
218.200, 0.248
218.300, 0.249
218.400, 0.244
218.500, 0.225
218.600, 0.226
218.700, 0.239
218.800, 0.263
218.900, 0.215
219.000, 0.236
219.100, 0.242
219.200, 0.229
219.300, 0.219
219.400, 0.246
219.500, 0.239
219.600, 0.257
219.700, 0.278
219.800, 0.270
219.900, 0.265
220.000, 0.246
220.100, 0.255
220.200, 0.270
220.300, 0.237
220.400, 0.241
220.500, 0.254
220.600, 0.253
220.700, 0.275
220.800, 0.265
220.900, 0.263
221.000, 0.254
221.100, 0.233
221.200, 0.244
221.300, 0.230
221.400, 0.219
221.500, 0.224
221.600, 0.221
221.700, 0.231
221.800, 0.228
221.900, 0.233
222.000, 0.222
222.100, 0.224
222.200, 0.236
222.300, 0.241
222.400, 0.237
222.500, 0.229
222.600, 0.246
222.700, 0.234
222.800, 0.215
222.900, 0.222
223.000, 0.224
223.100, 0.207
223.200, 0.242
223.300, 0.234
223.400, 0.254
223.500, 0.230
223.600, 0.243
223.700, 0.231
223.800, 0.214
223.900, 0.207
224.000, 0.225
224.100, 0.216
224.200, 0.198
224.300, 0.215
224.400, 0.243
224.500, 0.250
224.600, 0.242
224.700, 0.215
224.800, 0.238
224.900, 0.219
225.000, 0.227
225.100, 0.235
225.200, 0.253
225.300, 0.237
225.400, 0.256
225.500, 0.248
225.600, 0.243
225.700, 0.204
225.800, 0.204
225.900, 0.265
226.000, 0.248
226.100, 0.224
226.200, 0.216
226.300, 0.234
226.400, 0.234
226.500, 0.227
226.600, 0.230
226.700, 0.229
226.800, 0.214
226.900, 0.233
227.000, 0.212
227.100, 0.196
227.200, 0.180
227.300, 0.194
227.400, 0.160
227.500, 0.164
227.600, 0.182
227.700, 0.179
227.800, 0.194
227.900, 0.194
228.000, 0.203
228.100, 0.189
228.200, 0.184
228.300, 0.218
228.400, 0.208
228.500, 0.188
228.600, 0.211
228.700, 0.203
228.800, 0.202
228.900, 0.189
229.000, 0.212
229.100, 0.197
229.200, 0.207
229.300, 0.218
229.400, 0.214
229.500, 0.198
229.600, 0.211
229.700, 0.205
229.800, 0.215
229.900, 0.229
230.000, 0.196
230.100, 0.205
230.200, 0.196
230.300, 0.191
230.400, 0.188
230.500, 0.189
230.600, 0.197
230.700, 0.228
230.800, 0.213
230.900, 0.224
231.000, 0.195
231.100, 0.204
231.200, 0.191
231.300, 0.196
231.400, 0.195
231.500, 0.180
231.600, 0.207
231.700, 0.194
231.800, 0.197
231.900, 0.203
232.000, 0.200
232.100, 0.199
232.200, 0.206
232.300, 0.198
232.400, 0.196
232.500, 0.199
232.600, 0.203
232.700, 0.193
232.800, 0.238
232.900, 0.220
233.000, 0.235
233.100, 0.212
233.200, 0.233
233.300, 0.227
233.400, 0.224
233.500, 0.223
233.600, 0.196
233.700, 0.239
233.800, 0.197
233.900, 0.219
234.000, 0.239
234.100, 0.258
234.200, 0.267
234.300, 0.247
234.400, 0.227
234.500, 0.242
234.600, 0.227
234.700, 0.211
234.800, 0.249
234.900, 0.251
235.000, 0.230
235.100, 0.218
235.200, 0.229
235.300, 0.230
235.400, 0.239
235.500, 0.240
235.600, 0.242
235.700, 0.263
235.800, 0.250
235.900, 0.244
236.000, 0.266
236.100, 0.258
236.200, 0.243
236.300, 0.225
236.400, 0.245
236.500, 0.249
236.600, 0.227
236.700, 0.225
236.800, 0.225
236.900, 0.216
237.000, 0.229
237.100, 0.250
237.200, 0.220
237.300, 0.228
237.400, 0.248
237.500, 0.243
237.600, 0.234
237.700, 0.224
237.800, 0.235
237.900, 0.256
238.000, 0.268
238.100, 0.281
238.200, 0.253
238.300, 0.210
238.400, 0.235
238.500, 0.245
238.600, 0.251
238.700, 0.246
238.800, 0.263
238.900, 0.245
239.000, 0.224
239.100, 0.242
239.200, 0.222
239.300, 0.231
239.400, 0.227
239.500, 0.222
239.600, 0.235
239.700, 0.242
239.800, 0.249
239.900, 0.273
240.000, 0.247
240.100, 0.274
240.200, 0.262
240.300, 0.257
240.400, 0.247
240.500, 0.288
240.600, 0.268
240.700, 0.274
240.800, 0.262
240.900, 0.268
241.000, 0.233
241.100, 0.234
241.200, 0.222
241.300, 0.241
241.400, 0.225
241.500, 0.226
241.600, 0.252
241.700, 0.226
241.800, 0.238
241.900, 0.235
242.000, 0.216
242.100, 0.238
242.200, 0.245
242.300, 0.240
242.400, 0.259
242.500, 0.239
242.600, 0.214
242.700, 0.218
242.800, 0.214
242.900, 0.221
243.000, 0.208
243.100, 0.217
243.200, 0.229
243.300, 0.216
243.400, 0.219
243.500, 0.232
243.600, 0.224
243.700, 0.217
243.800, 0.222
243.900, 0.240
244.000, 0.266
244.100, 0.238
244.200, 0.254
244.300, 0.240
244.400, 0.229
244.500, 0.221
244.600, 0.223
244.700, 0.221
244.800, 0.267
244.900, 0.265
245.000, 0.243
245.100, 0.250
245.200, 0.243
245.300, 0.251
245.400, 0.243
245.500, 0.243
245.600, 0.247
245.700, 0.231
245.800, 0.234
245.900, 0.229
246.000, 0.229
246.100, 0.221
246.200, 0.236
246.300, 0.225
246.400, 0.230
246.500, 0.236
246.600, 0.248
246.700, 0.242
246.800, 0.227
246.900, 0.236
247.000, 0.232
247.100, 0.241
247.200, 0.235
247.300, 0.215
247.400, 0.239
247.500, 0.202
247.600, 0.212
247.700, 0.222
247.800, 0.222
247.900, 0.226
248.000, 0.234
248.100, 0.237
248.200, 0.239
248.300, 0.215
248.400, 0.211
248.500, 0.219
248.600, 0.236
248.700, 0.249
248.800, 0.221
248.900, 0.217
249.000, 0.203
249.100, 0.199
249.200, 0.201
249.300, 0.183
249.400, 0.186
249.500, 0.202
249.600, 0.184
249.700, 0.185
249.800, 0.177
249.900, 0.194
250.000, 0.190
250.100, 0.177
250.200, 0.187
250.300, 0.198
250.400, 0.184
250.500, 0.183
250.600, 0.177
250.700, 0.179
250.800, 0.193
250.900, 0.192
251.000, 0.163
251.100, 0.179
251.200, 0.186
251.300, 0.195
251.400, 0.208
251.500, 0.181
251.600, 0.205
251.700, 0.185
251.800, 0.183
251.900, 0.191
252.000, 0.187
252.100, 0.201
252.200, 0.204
252.300, 0.184
252.400, 0.195
252.500, 0.189
252.600, 0.197
252.700, 0.203
252.800, 0.208
252.900, 0.205
253.000, 0.210
253.100, 0.181
253.200, 0.210
253.300, 0.187
253.400, 0.186
253.500, 0.179
253.600, 0.190
253.700, 0.200
253.800, 0.199
253.900, 0.193
254.000, 0.196
254.100, 0.193
254.200, 0.180
254.300, 0.190
254.400, 0.186
254.500, 0.196
254.600, 0.201
254.700, 0.220
254.800, 0.194
254.900, 0.210
255.000, 0.224
255.100, 0.218
255.200, 0.217
255.300, 0.234
255.400, 0.220
255.500, 0.237
255.600, 0.214
255.700, 0.218
255.800, 0.200
255.900, 0.228
256.000, 0.216
256.100, 0.211
256.200, 0.242
256.300, 0.217
256.400, 0.212
256.500, 0.209
256.600, 0.212
256.700, 0.209
256.800, 0.217
256.900, 0.215
257.000, 0.227
257.100, 0.222
257.200, 0.234
257.300, 0.223
257.400, 0.233
257.500, 0.219
257.600, 0.209
257.700, 0.208
257.800, 0.215
257.900, 0.231
258.000, 0.195
258.100, 0.223
258.200, 0.225
258.300, 0.217
258.400, 0.198
258.500, 0.210
258.600, 0.215
258.700, 0.244
258.800, 0.222
258.900, 0.215
259.000, 0.225
259.100, 0.196
259.200, 0.200
259.300, 0.228
259.400, 0.208
259.500, 0.231
259.600, 0.223
259.700, 0.213
259.800, 0.239
259.900, 0.216
260.000, 0.214
260.100, 0.217
260.200, 0.235
260.300, 0.207
260.400, 0.209
260.500, 0.209
260.600, 0.225
260.700, 0.210
260.800, 0.204
260.900, 0.208
261.000, 0.197
261.100, 0.211
261.200, 0.210
261.300, 0.206
261.400, 0.224
261.500, 0.200
261.600, 0.213
261.700, 0.184
261.800, 0.192
261.900, 0.198
262.000, 0.203
262.100, 0.204
262.200, 0.208
262.300, 0.201
262.400, 0.214
262.500, 0.225
262.600, 0.204
262.700, 0.193
262.800, 0.252
262.900, 0.229
263.000, 0.258
263.100, 0.245
263.200, 0.272
263.300, 0.253
263.400, 0.271
263.500, 0.280
263.600, 0.262
263.700, 0.251
263.800, 0.250
263.900, 0.268
264.000, 0.258
264.100, 0.264
264.200, 0.265
264.300, 0.229
264.400, 0.251
264.500, 0.230
264.600, 0.250
264.700, 0.237
264.800, 0.226
264.900, 0.217
265.000, 0.244
265.100, 0.276
265.200, 0.292
265.300, 0.256
265.400, 0.257
265.500, 0.248
265.600, 0.259
265.700, 0.275
265.800, 0.282
265.900, 0.298
266.000, 0.305
266.100, 0.299
266.200, 0.276
266.300, 0.239
266.400, 0.232
266.500, 0.244
266.600, 0.232
266.700, 0.239
266.800, 0.247
266.900, 0.218
267.000, 0.220
267.100, 0.215
267.200, 0.244
267.300, 0.265
267.400, 0.265
267.500, 0.298
267.600, 0.302
267.700, 0.295
267.800, 0.276
267.900, 0.258
268.000, 0.280
268.100, 0.280
268.200, 0.283
268.300, 0.270
268.400, 0.313
268.500, 0.274
268.600, 0.298
268.700, 0.315
268.800, 0.292
268.900, 0.292
269.000, 0.287
269.100, 0.279
269.200, 0.277
269.300, 0.266
269.400, 0.292
269.500, 0.268
269.600, 0.260
269.700, 0.263
269.800, 0.274
269.900, 0.289
270.000, 0.275
270.100, 0.290
270.200, 0.266
270.300, 0.302
270.400, 0.260
270.500, 0.284
270.600, 0.310
270.700, 0.283
270.800, 0.268
270.900, 0.295
271.000, 0.308
271.100, 0.250
271.200, 0.269
271.300, 0.281
271.400, 0.262
271.500, 0.256
271.600, 0.254
271.700, 0.224
271.800, 0.226
271.900, 0.221
272.000, 0.226
272.100, 0.212
272.200, 0.217
272.300, 0.222
272.400, 0.223
272.500, 0.202
272.600, 0.206
272.700, 0.208
272.800, 0.232
272.900, 0.254
273.000, 0.237
273.100, 0.218
273.200, 0.230
273.300, 0.214
273.400, 0.227
273.500, 0.249
273.600, 0.232
273.700, 0.238
273.800, 0.231
273.900, 0.233
274.000, 0.241
274.100, 0.212
274.200, 0.216
274.300, 0.225
274.400, 0.215
274.500, 0.225
274.600, 0.236
274.700, 0.253
274.800, 0.245
274.900, 0.242
275.000, 0.234
275.100, 0.226
275.200, 0.220
275.300, 0.217
275.400, 0.237
275.500, 0.255
275.600, 0.241
275.700, 0.230
275.800, 0.224
275.900, 0.244
276.000, 0.252
276.100, 0.229
276.200, 0.265
276.300, 0.269
276.400, 0.264
276.500, 0.227
276.600, 0.217
276.700, 0.224
276.800, 0.217
276.900, 0.241
277.000, 0.240
277.100, 0.232
277.200, 0.243
277.300, 0.218
277.400, 0.229
277.500, 0.259
277.600, 0.256
277.700, 0.226
277.800, 0.241
277.900, 0.233
278.000, 0.221
278.100, 0.222
278.200, 0.234
278.300, 0.224
278.400, 0.219
278.500, 0.204
278.600, 0.222
278.700, 0.216
278.800, 0.226
278.900, 0.228
279.000, 0.223
279.100, 0.231
279.200, 0.231
279.300, 0.254
279.400, 0.279
279.500, 0.295
279.600, 0.317
279.700, 0.282
279.800, 0.277
279.900, 0.288
280.000, 0.275
280.100, 0.272
280.200, 0.305
280.300, 0.324
280.400, 0.307
280.500, 0.288
280.600, 0.290
280.700, 0.273
280.800, 0.291
280.900, 0.275
281.000, 0.266
281.100, 0.300
281.200, 0.311
281.300, 0.291
281.400, 0.278
281.500, 0.287
281.600, 0.288
281.700, 0.305
281.800, 0.305
281.900, 0.263
282.000, 0.262
282.100, 0.243
282.200, 0.254
282.300, 0.268
282.400, 0.284
282.500, 0.272
282.600, 0.246
282.700, 0.261
282.800, 0.238
282.900, 0.230
283.000, 0.255
283.100, 0.233
283.200, 0.269
283.300, 0.247
283.400, 0.262
283.500, 0.259
283.600, 0.230
283.700, 0.246
283.800, 0.256
283.900, 0.267
284.000, 0.266
284.100, 0.252
284.200, 0.260
284.300, 0.260
284.400, 0.234
284.500, 0.246
284.600, 0.250
284.700, 0.236
284.800, 0.245
284.900, 0.233
285.000, 0.241
285.100, 0.249
285.200, 0.243
285.300, 0.247
285.400, 0.247
285.500, 0.247
285.600, 0.247
285.700, 0.262
285.800, 0.230
285.900, 0.253
286.000, 0.236
286.100, 0.255
286.200, 0.224
286.300, 0.201
286.400, 0.210
286.500, 0.192
286.600, 0.193
286.700, 0.222
286.800, 0.214
286.900, 0.228
287.000, 0.248
287.100, 0.259
287.200, 0.263
287.300, 0.263
287.400, 0.236
287.500, 0.237
287.600, 0.264
287.700, 0.246
287.800, 0.232
287.900, 0.229
288.000, 0.244
288.100, 0.240
288.200, 0.265
288.300, 0.242
288.400, 0.254
288.500, 0.240
288.600, 0.231
288.700, 0.234
288.800, 0.259
288.900, 0.250
289.000, 0.261
289.100, 0.278
289.200, 0.263
289.300, 0.273
289.400, 0.246
289.500, 0.256
289.600, 0.257
289.700, 0.238
289.800, 0.237
289.900, 0.219
290.000, 0.285
290.100, 0.262
290.200, 0.265
290.300, 0.267
290.400, 0.266
290.500, 0.225
290.600, 0.226
290.700, 0.218
290.800, 0.224
290.900, 0.225
291.000, 0.241
291.100, 0.213
291.200, 0.181
291.300, 0.157
291.400, 0.161
291.500, 0.161
291.600, 0.163
291.700, 0.145
291.800, 0.187
291.900, 0.178
292.000, 0.162
292.100, 0.171
292.200, 0.177
292.300, 0.199
292.400, 0.180
292.500, 0.220
292.600, 0.243
292.700, 0.216
292.800, 0.207
292.900, 0.217
293.000, 0.214
293.100, 0.233
293.200, 0.215
293.300, 0.228
293.400, 0.201
293.500, 0.209
293.600, 0.204
293.700, 0.226
293.800, 0.191
293.900, 0.217
294.000, 0.254
294.100, 0.200
294.200, 0.206
294.300, 0.221
294.400, 0.236
294.500, 0.210
294.600, 0.202
294.700, 0.205
294.800, 0.209
294.900, 0.216
295.000, 0.218
295.100, 0.225
295.200, 0.228
295.300, 0.218
295.400, 0.190
295.500, 0.188
295.600, 0.206
295.700, 0.191
295.800, 0.202
295.900, 0.175
296.000, 0.177
296.100, 0.170
296.200, 0.170
296.300, 0.216
296.400, 0.233
296.500, 0.219
296.600, 0.262
296.700, 0.247
296.800, 0.251
296.900, 0.210
297.000, 0.217
297.100, 0.192
297.200, 0.199
297.300, 0.214
297.400, 0.217
297.500, 0.196
297.600, 0.208
297.700, 0.191
297.800, 0.218
297.900, 0.253
298.000, 0.235
298.100, 0.227
298.200, 0.237
298.300, 0.226
298.400, 0.205
298.500, 0.227
298.600, 0.226
298.700, 0.224
298.800, 0.205
298.900, 0.221
299.000, 0.214
299.100, 0.226
299.200, 0.212
299.300, 0.196
299.400, 0.194
299.500, 0.215
299.600, 0.231
299.700, 0.263
299.800, 0.226
299.900, 0.235
300.000, 0.218
300.100, 0.210
300.200, 0.200
300.300, 0.194
300.400, 0.219
300.500, 0.222
300.600, 0.245
300.700, 0.234
300.800, 0.218
300.900, 0.215
301.000, 0.244
301.100, 0.228
301.200, 0.220
301.300, 0.251
301.400, 0.236
301.500, 0.234
301.600, 0.205
301.700, 0.201
301.800, 0.203
301.900, 0.222
302.000, 0.232
302.100, 0.232
302.200, 0.204
302.300, 0.241
302.400, 0.230
302.500, 0.216
302.600, 0.228
302.700, 0.213
302.800, 0.200
302.900, 0.197
303.000, 0.213
303.100, 0.243
303.200, 0.226
303.300, 0.221
303.400, 0.197
303.500, 0.197
303.600, 0.202
303.700, 0.228
303.800, 0.189
303.900, 0.221
304.000, 0.199
304.100, 0.214
304.200, 0.275
304.300, 0.214
304.400, 0.210
304.500, 0.193
304.600, 0.192
304.700, 0.184
304.800, 0.261
304.900, 0.246
305.000, 0.225
305.100, 0.247
305.200, 0.223
305.300, 0.229
305.400, 0.224
305.500, 0.223
305.600, 0.164
305.700, 0.205
305.800, 0.208
305.900, 0.224
306.000, 0.224
306.100, 0.212
306.200, 0.224
306.300, 0.212
306.400, 0.202
306.500, 0.199
306.600, 0.188
306.700, 0.222
306.800, 0.196
306.900, 0.205
307.000, 0.231
307.100, 0.241
307.200, 0.218
307.300, 0.219
307.400, 0.245
307.500, 0.235
307.600, 0.245
307.700, 0.213
307.800, 0.211
307.900, 0.211
308.000, 0.205
308.100, 0.221
308.200, 0.276
308.300, 0.232
308.400, 0.230
308.500, 0.213
308.600, 0.236
308.700, 0.226
308.800, 0.232
308.900, 0.218
309.000, 0.204
309.100, 0.203
309.200, 0.219
309.300, 0.223
309.400, 0.214
309.500, 0.229
309.600, 0.232
309.700, 0.225
309.800, 0.224
309.900, 0.243
310.000, 0.237
310.100, 0.243
310.200, 0.240
310.300, 0.221
310.400, 0.227
310.500, 0.201
310.600, 0.227
310.700, 0.218
310.800, 0.235
310.900, 0.242
311.000, 0.237
311.100, 0.244
311.200, 0.257
311.300, 0.278
311.400, 0.230
311.500, 0.217
311.600, 0.251
311.700, 0.239
311.800, 0.213
311.900, 0.220
312.000, 0.227
312.100, 0.204
312.200, 0.208
312.300, 0.220
312.400, 0.218
312.500, 0.228
312.600, 0.236
312.700, 0.208
312.800, 0.266
312.900, 0.271
313.000, 0.284
313.100, 0.228
313.200, 0.255
313.300, 0.228
313.400, 0.218
313.500, 0.214
313.600, 0.201
313.700, 0.238
313.800, 0.215
313.900, 0.223
314.000, 0.217
314.100, 0.216
314.200, 0.229
314.300, 0.232
314.400, 0.227
314.500, 0.226
314.600, 0.227
314.700, 0.226
314.800, 0.225
314.900, 0.230
315.000, 0.228
315.100, 0.247
315.200, 0.248
315.300, 0.243
315.400, 0.227
315.500, 0.232
315.600, 0.221
315.700, 0.194
315.800, 0.210
315.900, 0.211
316.000, 0.202
316.100, 0.194
316.200, 0.184
316.300, 0.189
316.400, 0.214
316.500, 0.209
316.600, 0.210
316.700, 0.244
316.800, 0.247
316.900, 0.237
317.000, 0.240
317.100, 0.222
317.200, 0.231
317.300, 0.231
317.400, 0.230
317.500, 0.223
317.600, 0.228
317.700, 0.233
317.800, 0.200
317.900, 0.232
318.000, 0.236
318.100, 0.234
318.200, 0.212
318.300, 0.217
318.400, 0.221
318.500, 0.202
318.600, 0.201
318.700, 0.198
318.800, 0.225
318.900, 0.215
319.000, 0.197
319.100, 0.184
319.200, 0.184
319.300, 0.216
319.400, 0.242
319.500, 0.227
319.600, 0.214
319.700, 0.184
319.800, 0.188
319.900, 0.193
320.000, 0.193
320.100, 0.202
320.200, 0.198
320.300, 0.182
320.400, 0.204
320.500, 0.206
320.600, 0.207
320.700, 0.212
320.800, 0.209
320.900, 0.199
321.000, 0.187
321.100, 0.220
321.200, 0.203
321.300, 0.227
321.400, 0.250
321.500, 0.239
321.600, 0.242
321.700, 0.255
321.800, 0.247
321.900, 0.284
322.000, 0.263
322.100, 0.229
322.200, 0.229
322.300, 0.236
322.400, 0.251
322.500, 0.220
322.600, 0.207
322.700, 0.224
322.800, 0.229
322.900, 0.218
323.000, 0.214
323.100, 0.225
323.200, 0.206
323.300, 0.214
323.400, 0.205
323.500, 0.245
323.600, 0.228
323.700, 0.201
323.800, 0.218
323.900, 0.214
324.000, 0.222
324.100, 0.210
324.200, 0.241
324.300, 0.216
324.400, 0.222
324.500, 0.214
324.600, 0.221
324.700, 0.234
324.800, 0.206
324.900, 0.213
325.000, 0.240
325.100, 0.245
325.200, 0.219
325.300, 0.212
325.400, 0.189
325.500, 0.190
325.600, 0.210
325.700, 0.196
325.800, 0.191
325.900, 0.196
326.000, 0.225
326.100, 0.201
326.200, 0.218
326.300, 0.234
326.400, 0.233
326.500, 0.232
326.600, 0.209
326.700, 0.231
326.800, 0.231
326.900, 0.224
327.000, 0.213
327.100, 0.207
327.200, 0.205
327.300, 0.195
327.400, 0.217
327.500, 0.215
327.600, 0.230
327.700, 0.216
327.800, 0.248
327.900, 0.231
328.000, 0.237
328.100, 0.263
328.200, 0.282
328.300, 0.247
328.400, 0.235
328.500, 0.246
328.600, 0.205
328.700, 0.212
328.800, 0.213
328.900, 0.185
329.000, 0.206
329.100, 0.197
329.200, 0.201
329.300, 0.199
329.400, 0.216
329.500, 0.215
329.600, 0.217
329.700, 0.209
329.800, 0.224
329.900, 0.208
330.000, 0.210
330.100, 0.202
330.200, 0.193
330.300, 0.188
330.400, 0.220
330.500, 0.219
330.600, 0.244
330.700, 0.222
330.800, 0.221
330.900, 0.213
331.000, 0.213
331.100, 0.236
331.200, 0.208
331.300, 0.223
331.400, 0.215
331.500, 0.238
331.600, 0.230
331.700, 0.233
331.800, 0.230
331.900, 0.240
332.000, 0.242
332.100, 0.244
332.200, 0.235
332.300, 0.206
332.400, 0.234
332.500, 0.224
332.600, 0.205
332.700, 0.228
332.800, 0.212
332.900, 0.193
333.000, 0.209
333.100, 0.191
333.200, 0.222
333.300, 0.219
333.400, 0.218
333.500, 0.221
333.600, 0.231
333.700, 0.227
333.800, 0.199
333.900, 0.196
334.000, 0.202
334.100, 0.210
334.200, 0.211
334.300, 0.226
334.400, 0.253
334.500, 0.246
334.600, 0.222
334.700, 0.206
334.800, 0.243
334.900, 0.218
335.000, 0.239
335.100, 0.240
335.200, 0.215
335.300, 0.249
335.400, 0.241
335.500, 0.244
335.600, 0.260
335.700, 0.238
335.800, 0.255
335.900, 0.257
336.000, 0.223
336.100, 0.240
336.200, 0.235
336.300, 0.234
336.400, 0.226
336.500, 0.240
336.600, 0.232
336.700, 0.237
336.800, 0.244
336.900, 0.260
337.000, 0.249
337.100, 0.240
337.200, 0.262
337.300, 0.247
337.400, 0.251
337.500, 0.261
337.600, 0.279
337.700, 0.225
337.800, 0.265
337.900, 0.256
338.000, 0.215
338.100, 0.242
338.200, 0.225
338.300, 0.237
338.400, 0.241
338.500, 0.266
338.600, 0.268
338.700, 0.262
338.800, 0.257
338.900, 0.285
339.000, 0.240
339.100, 0.251
339.200, 0.257
339.300, 0.260
339.400, 0.248
339.500, 0.244
339.600, 0.301
339.700, 0.258
339.800, 0.267
339.900, 0.226
340.000, 0.266
340.100, 0.238
340.200, 0.245
340.300, 0.235
340.400, 0.236
340.500, 0.236
340.600, 0.237
340.700, 0.248
340.800, 0.253
340.900, 0.247
341.000, 0.264
341.100, 0.251
341.200, 0.215
341.300, 0.242
341.400, 0.222
341.500, 0.209
341.600, 0.223
341.700, 0.213
341.800, 0.237
341.900, 0.215
342.000, 0.220
342.100, 0.212
342.200, 0.221
342.300, 0.209
342.400, 0.204
342.500, 0.223
342.600, 0.206
342.700, 0.188
342.800, 0.197
342.900, 0.216
343.000, 0.187
343.100, 0.197
343.200, 0.192
343.300, 0.197
343.400, 0.243
343.500, 0.244
343.600, 0.287
343.700, 0.286
343.800, 0.255
343.900, 0.273
344.000, 0.270
344.100, 0.274
344.200, 0.250
344.300, 0.270
344.400, 0.284
344.500, 0.267
344.600, 0.251
344.700, 0.247
344.800, 0.248
344.900, 0.285
345.000, 0.261
345.100, 0.267
345.200, 0.252
345.300, 0.269
345.400, 0.240
345.500, 0.274
345.600, 0.265
345.700, 0.235
345.800, 0.275
345.900, 0.248
346.000, 0.269
346.100, 0.257
346.200, 0.269
346.300, 0.255
346.400, 0.231
346.500, 0.251
346.600, 0.240
346.700, 0.244
346.800, 0.266
346.900, 0.284
347.000, 0.283
347.100, 0.299
347.200, 0.298
347.300, 0.270
347.400, 0.267
347.500, 0.255
347.600, 0.243
347.700, 0.274
347.800, 0.259
347.900, 0.232
348.000, 0.218
348.100, 0.201
348.200, 0.224
348.300, 0.264
348.400, 0.245
348.500, 0.263
348.600, 0.264
348.700, 0.253
348.800, 0.280
348.900, 0.250
349.000, 0.230
349.100, 0.256
349.200, 0.217
349.300, 0.218
349.400, 0.206
349.500, 0.212
349.600, 0.203
349.700, 0.205
349.800, 0.205
349.900, 0.219
350.000, 0.185
350.100, 0.189
350.200, 0.217
350.300, 0.250
350.400, 0.209
350.500, 0.225
350.600, 0.200
350.700, 0.222
350.800, 0.219
350.900, 0.195
351.000, 0.219
351.100, 0.191
351.200, 0.208
351.300, 0.191
351.400, 0.197
351.500, 0.195
351.600, 0.203
351.700, 0.198
351.800, 0.244
351.900, 0.235
352.000, 0.246
352.100, 0.205
352.200, 0.206
352.300, 0.187
352.400, 0.188
352.500, 0.184
352.600, 0.201
352.700, 0.169
352.800, 0.183
352.900, 0.188
353.000, 0.180
353.100, 0.215
353.200, 0.186
353.300, 0.175
353.400, 0.165
353.500, 0.156
353.600, 0.165
353.700, 0.186
353.800, 0.138
353.900, 0.184
354.000, 0.179
354.100, 0.182
354.200, 0.209
354.300, 0.201
354.400, 0.172
354.500, 0.202
354.600, 0.198
354.700, 0.175
354.800, 0.195
354.900, 0.202
355.000, 0.180
355.100, 0.193
355.200, 0.184
355.300, 0.182
355.400, 0.166
355.500, 0.190
355.600, 0.169
355.700, 0.205
355.800, 0.179
355.900, 0.173
356.000, 0.227
356.100, 0.210
356.200, 0.208
356.300, 0.240
356.400, 0.231
356.500, 0.247
356.600, 0.239
356.700, 0.235
356.800, 0.242
356.900, 0.226
357.000, 0.200
357.100, 0.248
357.200, 0.242
357.300, 0.220
357.400, 0.226
357.500, 0.213
357.600, 0.215
357.700, 0.243
357.800, 0.241
357.900, 0.194
358.000, 0.183
358.100, 0.219
358.200, 0.198
358.300, 0.190
358.400, 0.191
358.500, 0.203
358.600, 0.210
358.700, 0.218
358.800, 0.197
358.900, 0.198
359.000, 0.218
359.100, 0.217
359.200, 0.208
359.300, 0.199
359.400, 0.199
359.500, 0.232
359.600, 0.200
359.700, 0.212
359.800, 0.193
359.900, 0.187
360.000, 0.225
360.100, 0.206
360.200, 0.199
360.300, 0.199
360.400, 0.210
360.500, 0.190
360.600, 0.213
360.700, 0.184
360.800, 0.203
360.900, 0.230
361.000, 0.211
361.100, 0.213
361.200, 0.203
361.300, 0.202
361.400, 0.214
361.500, 0.206
361.600, 0.194
361.700, 0.179
361.800, 0.180
361.900, 0.223
362.000, 0.225
362.100, 0.216
362.200, 0.203
362.300, 0.196
362.400, 0.179
362.500, 0.165
362.600, 0.172
362.700, 0.176
362.800, 0.190
362.900, 0.193
363.000, 0.183
363.100, 0.174
363.200, 0.158
363.300, 0.184
363.400, 0.207
363.500, 0.187
363.600, 0.179
363.700, 0.183
363.800, 0.177
363.900, 0.172
364.000, 0.167
364.100, 0.158
364.200, 0.158
364.300, 0.141
364.400, 0.160
364.500, 0.189
364.600, 0.195
364.700, 0.175
364.800, 0.187
364.900, 0.176
365.000, 0.171
365.100, 0.177
365.200, 0.182
365.300, 0.175
365.400, 0.158
365.500, 0.178
365.600, 0.169
365.700, 0.183
365.800, 0.171
365.900, 0.166
366.000, 0.205
366.100, 0.169
366.200, 0.182
366.300, 0.205
366.400, 0.189
366.500, 0.175
366.600, 0.184
366.700, 0.168
366.800, 0.173
366.900, 0.167
367.000, 0.157
367.100, 0.164
367.200, 0.130
367.300, 0.158
367.400, 0.135
367.500, 0.145
367.600, 0.139
367.700, 0.158
367.800, 0.165
367.900, 0.161
368.000, 0.164
368.100, 0.190
368.200, 0.168
368.300, 0.175
368.400, 0.176
368.500, 0.149
368.600, 0.172
368.700, 0.178
368.800, 0.199
368.900, 0.198
369.000, 0.181
369.100, 0.176
369.200, 0.184
369.300, 0.190
369.400, 0.180
369.500, 0.173
369.600, 0.165
369.700, 0.157
369.800, 0.148
369.900, 0.152
370.000, 0.171
370.100, 0.167
370.200, 0.181
370.300, 0.153
370.400, 0.161
370.500, 0.159
370.600, 0.150
370.700, 0.163
370.800, 0.153
370.900, 0.155
371.000, 0.159
371.100, 0.155
371.200, 0.157
371.300, 0.144
371.400, 0.162
371.500, 0.186
371.600, 0.161
371.700, 0.184
371.800, 0.172
371.900, 0.170
372.000, 0.169
372.100, 0.165
372.200, 0.163
372.300, 0.144
372.400, 0.177
372.500, 0.161
372.600, 0.164
372.700, 0.153
372.800, 0.154
372.900, 0.157
373.000, 0.166
373.100, 0.172
373.200, 0.165
373.300, 0.152
373.400, 0.153
373.500, 0.179
373.600, 0.156
373.700, 0.176
373.800, 0.167
373.900, 0.165
374.000, 0.149
374.100, 0.155
374.200, 0.166
374.300, 0.150
374.400, 0.150
374.500, 0.152
374.600, 0.169
374.700, 0.157
374.800, 0.169
374.900, 0.166
375.000, 0.165
375.100, 0.148
375.200, 0.171
375.300, 0.176
375.400, 0.163
375.500, 0.160
375.600, 0.172
375.700, 0.158
375.800, 0.152
375.900, 0.164
376.000, 0.172
376.100, 0.212
376.200, 0.204
376.300, 0.195
376.400, 0.175
376.500, 0.161
376.600, 0.175
376.700, 0.182
376.800, 0.173
376.900, 0.173
377.000, 0.167
377.100, 0.149
377.200, 0.156
377.300, 0.144
377.400, 0.153
377.500, 0.142
377.600, 0.171
377.700, 0.162
377.800, 0.169
377.900, 0.171
378.000, 0.170
378.100, 0.167
378.200, 0.156
378.300, 0.171
378.400, 0.137
378.500, 0.141
378.600, 0.142
378.700, 0.169
378.800, 0.169
378.900, 0.169
379.000, 0.188
379.100, 0.181
379.200, 0.187
379.300, 0.189
379.400, 0.175
379.500, 0.173
379.600, 0.157
379.700, 0.162
379.800, 0.163
379.900, 0.164
380.000, 0.198
380.100, 0.187
380.200, 0.185
380.300, 0.196
380.400, 0.167
380.500, 0.173
380.600, 0.179
380.700, 0.192
380.800, 0.163
380.900, 0.182
381.000, 0.152
381.100, 0.186
381.200, 0.180
381.300, 0.178
381.400, 0.171
381.500, 0.153
381.600, 0.172
381.700, 0.179
381.800, 0.179
381.900, 0.180
382.000, 0.159
382.100, 0.152
382.200, 0.132
382.300, 0.168
382.400, 0.157
382.500, 0.149
382.600, 0.130
382.700, 0.160
382.800, 0.164
382.900, 0.179
383.000, 0.178
383.100, 0.167
383.200, 0.164
383.300, 0.173
383.400, 0.178
383.500, 0.180
383.600, 0.182
383.700, 0.178
383.800, 0.192
383.900, 0.197
384.000, 0.167
384.100, 0.152
384.200, 0.182
384.300, 0.177
384.400, 0.181
384.500, 0.207
384.600, 0.222
384.700, 0.206
384.800, 0.200
384.900, 0.187
385.000, 0.183
385.100, 0.184
385.200, 0.175
385.300, 0.207
385.400, 0.176
385.500, 0.177
385.600, 0.193
385.700, 0.211
385.800, 0.204
385.900, 0.201
386.000, 0.208
386.100, 0.173
386.200, 0.198
386.300, 0.186
386.400, 0.204
386.500, 0.189
386.600, 0.197
386.700, 0.163
386.800, 0.172
386.900, 0.170
387.000, 0.184
387.100, 0.175
387.200, 0.186
387.300, 0.184
387.400, 0.189
387.500, 0.170
387.600, 0.214
387.700, 0.198
387.800, 0.188
387.900, 0.172
388.000, 0.185
388.100, 0.191
388.200, 0.182
388.300, 0.189
388.400, 0.166
388.500, 0.178
388.600, 0.199
388.700, 0.179
388.800, 0.156
388.900, 0.172
389.000, 0.169
389.100, 0.182
389.200, 0.163
389.300, 0.173
389.400, 0.159
389.500, 0.174
389.600, 0.162
389.700, 0.172
389.800, 0.184
389.900, 0.176
390.000, 0.166
390.100, 0.174
390.200, 0.182
390.300, 0.183
390.400, 0.184
390.500, 0.174
390.600, 0.158
390.700, 0.144
390.800, 0.171
390.900, 0.132
391.000, 0.149
391.100, 0.148
391.200, 0.193
391.300, 0.197
391.400, 0.166
391.500, 0.181
391.600, 0.187
391.700, 0.168
391.800, 0.175
391.900, 0.148
392.000, 0.156
392.100, 0.165
392.200, 0.180
392.300, 0.177
392.400, 0.188
392.500, 0.188
392.600, 0.183
392.700, 0.192
392.800, 0.155
392.900, 0.171
393.000, 0.162
393.100, 0.173
393.200, 0.208
393.300, 0.202
393.400, 0.181
393.500, 0.182
393.600, 0.206
393.700, 0.199
393.800, 0.187
393.900, 0.183
394.000, 0.182
394.100, 0.174
394.200, 0.170
394.300, 0.167
394.400, 0.207
394.500, 0.201
394.600, 0.203
394.700, 0.197
394.800, 0.182
394.900, 0.234
395.000, 0.214
395.100, 0.193
395.200, 0.209
395.300, 0.215
395.400, 0.204
395.500, 0.202
395.600, 0.197
395.700, 0.201
395.800, 0.183
395.900, 0.195
396.000, 0.198
396.100, 0.181
396.200, 0.183
396.300, 0.187
396.400, 0.198
396.500, 0.189
396.600, 0.174
396.700, 0.175
396.800, 0.195
396.900, 0.190
397.000, 0.173
397.100, 0.195
397.200, 0.177
397.300, 0.205
397.400, 0.204
397.500, 0.179
397.600, 0.184
397.700, 0.183
397.800, 0.186
397.900, 0.167
398.000, 0.178
398.100, 0.193
398.200, 0.204
398.300, 0.190
398.400, 0.205
398.500, 0.190
398.600, 0.198
398.700, 0.204
398.800, 0.180
398.900, 0.176
399.000, 0.178
399.100, 0.180
399.200, 0.201
399.300, 0.180
399.400, 0.181
399.500, 0.174
399.600, 0.185
399.700, 0.181
399.800, 0.172
399.900, 0.159
400.000, 0.189
400.100, 0.211
400.200, 0.194
400.300, 0.191
400.400, 0.182
400.500, 0.200
400.600, 0.208
400.700, 0.209
400.800, 0.189
400.900, 0.182
401.000, 0.177
401.100, 0.186
401.200, 0.180
401.300, 0.159
401.400, 0.184
401.500, 0.180
401.600, 0.162
401.700, 0.166
401.800, 0.158
401.900, 0.146
402.000, 0.168
402.100, 0.186
402.200, 0.175
402.300, 0.186
402.400, 0.174
402.500, 0.146
402.600, 0.192
402.700, 0.192
402.800, 0.232
402.900, 0.148
403.000, 0.181
403.100, 0.192
403.200, 0.207
403.300, 0.181
403.400, 0.163
403.500, 0.193
403.600, 0.180
403.700, 0.173
403.800, 0.175
403.900, 0.186
404.000, 0.170
404.100, 0.180
404.200, 0.170
404.300, 0.182
404.400, 0.173
404.500, 0.193
404.600, 0.204
404.700, 0.173
404.800, 0.176
404.900, 0.184
405.000, 0.181
405.100, 0.165
405.200, 0.176
405.300, 0.184
405.400, 0.185
405.500, 0.192
405.600, 0.190
405.700, 0.173
405.800, 0.149
405.900, 0.167
406.000, 0.161
406.100, 0.168
406.200, 0.181
406.300, 0.180
406.400, 0.187
406.500, 0.179
406.600, 0.178
406.700, 0.180
406.800, 0.202
406.900, 0.182
407.000, 0.198
407.100, 0.212
407.200, 0.176
407.300, 0.191
407.400, 0.155
407.500, 0.156
407.600, 0.177
407.700, 0.212
407.800, 0.203
407.900, 0.219
408.000, 0.172
408.100, 0.201
408.200, 0.212
408.300, 0.184
408.400, 0.172
408.500, 0.188
408.600, 0.187
408.700, 0.197
408.800, 0.183
408.900, 0.173
409.000, 0.189
409.100, 0.196
409.200, 0.215
409.300, 0.191
409.400, 0.193
409.500, 0.181
409.600, 0.167
409.700, 0.191
409.800, 0.183
409.900, 0.203
410.000, 0.179
410.100, 0.185
410.200, 0.189
410.300, 0.194
410.400, 0.205
410.500, 0.191
410.600, 0.200
410.700, 0.198
410.800, 0.200
410.900, 0.175
411.000, 0.171
411.100, 0.156
411.200, 0.201
411.300, 0.206
411.400, 0.170
411.500, 0.161
411.600, 0.177
411.700, 0.176
411.800, 0.179
411.900, 0.200
412.000, 0.193
412.100, 0.204
412.200, 0.179
412.300, 0.186
412.400, 0.177
412.500, 0.193
412.600, 0.172
412.700, 0.160
412.800, 0.225
412.900, 0.219
413.000, 0.196
413.100, 0.210
413.200, 0.233
413.300, 0.231
413.400, 0.236
413.500, 0.244
413.600, 0.209
413.700, 0.192
413.800, 0.199
413.900, 0.209
414.000, 0.202
414.100, 0.220
414.200, 0.186
414.300, 0.187
414.400, 0.198
414.500, 0.210
414.600, 0.224
414.700, 0.198
414.800, 0.195
414.900, 0.186
415.000, 0.214
415.100, 0.187
415.200, 0.206
415.300, 0.232
415.400, 0.194
415.500, 0.232
415.600, 0.210
415.700, 0.221
415.800, 0.193
415.900, 0.181
416.000, 0.216
416.100, 0.204
416.200, 0.219
416.300, 0.216
416.400, 0.213
416.500, 0.193
416.600, 0.178
416.700, 0.183
416.800, 0.180
416.900, 0.188
417.000, 0.190
417.100, 0.203
417.200, 0.202
417.300, 0.228
417.400, 0.185
417.500, 0.187
417.600, 0.209
417.700, 0.219
417.800, 0.209
417.900, 0.235
418.000, 0.194
418.100, 0.198
418.200, 0.174
418.300, 0.208
418.400, 0.179
418.500, 0.192
418.600, 0.177
418.700, 0.195
418.800, 0.202
418.900, 0.191
419.000, 0.189
419.100, 0.171
419.200, 0.187
419.300, 0.179
419.400, 0.177
419.500, 0.204
419.600, 0.214
419.700, 0.191
419.800, 0.181
419.900, 0.168
420.000, 0.155
420.100, 0.176
420.200, 0.152
420.300, 0.156
420.400, 0.165
420.500, 0.177
420.600, 0.173
420.700, 0.184
420.800, 0.164
420.900, 0.175
421.000, 0.156
421.100, 0.197
421.200, 0.183
421.300, 0.181
421.400, 0.186
421.500, 0.172
421.600, 0.177
421.700, 0.165
421.800, 0.191
421.900, 0.183
422.000, 0.159
422.100, 0.166
422.200, 0.137
422.300, 0.171
422.400, 0.154
422.500, 0.177
422.600, 0.172
422.700, 0.184
422.800, 0.151
422.900, 0.163
423.000, 0.156
423.100, 0.170
423.200, 0.167
423.300, 0.158
423.400, 0.157
423.500, 0.159
423.600, 0.170
423.700, 0.180
423.800, 0.167
423.900, 0.163
424.000, 0.161
424.100, 0.144
424.200, 0.185
424.300, 0.170
424.400, 0.168
424.500, 0.137
424.600, 0.154
424.700, 0.137
424.800, 0.153
424.900, 0.158
425.000, 0.174
425.100, 0.168
425.200, 0.161
425.300, 0.150
425.400, 0.155
425.500, 0.144
425.600, 0.138
425.700, 0.149
425.800, 0.138
425.900, 0.140
426.000, 0.145
426.100, 0.177
426.200, 0.183
426.300, 0.196
426.400, 0.198
426.500, 0.189
426.600, 0.158
426.700, 0.194
426.800, 0.183
426.900, 0.168
427.000, 0.212
427.100, 0.192
427.200, 0.174
427.300, 0.164
427.400, 0.187
427.500, 0.196
427.600, 0.180
427.700, 0.187
427.800, 0.188
427.900, 0.183
428.000, 0.164
428.100, 0.162
428.200, 0.188
428.300, 0.157
428.400, 0.165
428.500, 0.190
428.600, 0.189
428.700, 0.167
428.800, 0.201
428.900, 0.168
429.000, 0.185
429.100, 0.216
429.200, 0.195
429.300, 0.160
429.400, 0.180
429.500, 0.157
429.600, 0.168
429.700, 0.201
429.800, 0.190
429.900, 0.170
430.000, 0.189
430.100, 0.192
430.200, 0.176
430.300, 0.182
430.400, 0.160
430.500, 0.167
430.600, 0.197
430.700, 0.197
430.800, 0.179
430.900, 0.189
431.000, 0.169
431.100, 0.176
431.200, 0.190
431.300, 0.165
431.400, 0.183
431.500, 0.177
431.600, 0.179
431.700, 0.189
431.800, 0.162
431.900, 0.195
432.000, 0.184
432.100, 0.201
432.200, 0.178
432.300, 0.203
432.400, 0.194
432.500, 0.199
432.600, 0.186
432.700, 0.181
432.800, 0.195
432.900, 0.174
433.000, 0.166
433.100, 0.180
433.200, 0.165
433.300, 0.158
433.400, 0.158
433.500, 0.163
433.600, 0.167
433.700, 0.175
433.800, 0.186
433.900, 0.205
434.000, 0.198
434.100, 0.171
434.200, 0.174
434.300, 0.172
434.400, 0.166
434.500, 0.162
434.600, 0.170
434.700, 0.153
434.800, 0.134
434.900, 0.152
435.000, 0.131
435.100, 0.127
435.200, 0.128
435.300, 0.154
435.400, 0.160
435.500, 0.144
435.600, 0.139
435.700, 0.159
435.800, 0.176
435.900, 0.170
436.000, 0.174
436.100, 0.205
436.200, 0.171
436.300, 0.183
436.400, 0.160
436.500, 0.134
436.600, 0.123
436.700, 0.148
436.800, 0.161
436.900, 0.168
437.000, 0.124
437.100, 0.145
437.200, 0.123
437.300, 0.110
437.400, 0.102
437.500, 0.126
437.600, 0.122
437.700, 0.123
437.800, 0.112
437.900, 0.123
438.000, 0.115
438.100, 0.113
438.200, 0.120
438.300, 0.125
438.400, 0.161
438.500, 0.159
438.600, 0.164
438.700, 0.143
438.800, 0.170
438.900, 0.169
439.000, 0.170
439.100, 0.179
439.200, 0.150
439.300, 0.154
439.400, 0.187
439.500, 0.172
439.600, 0.189
439.700, 0.197
439.800, 0.169
439.900, 0.173
440.000, 0.170
440.100, 0.151
440.200, 0.159
440.300, 0.145
440.400, 0.138
440.500, 0.139
440.600, 0.134
440.700, 0.133
440.800, 0.142
440.900, 0.138
441.000, 0.145
441.100, 0.174
441.200, 0.164
441.300, 0.167
441.400, 0.166
441.500, 0.161
441.600, 0.158
441.700, 0.154
441.800, 0.155
441.900, 0.166
442.000, 0.170
442.100, 0.177
442.200, 0.137
442.300, 0.132
442.400, 0.140
442.500, 0.134
442.600, 0.114
442.700, 0.143
442.800, 0.158
442.900, 0.142
443.000, 0.140
443.100, 0.144
443.200, 0.152
443.300, 0.131
443.400, 0.136
443.500, 0.132
443.600, 0.129
443.700, 0.151
443.800, 0.141
443.900, 0.143
444.000, 0.128
444.100, 0.137
444.200, 0.143
444.300, 0.183
444.400, 0.165
444.500, 0.153
444.600, 0.147
444.700, 0.147
444.800, 0.157
444.900, 0.152
445.000, 0.139
445.100, 0.145
445.200, 0.156
445.300, 0.171
445.400, 0.150
445.500, 0.147
445.600, 0.160
445.700, 0.172
445.800, 0.154
445.900, 0.153
446.000, 0.144
446.100, 0.173
446.200, 0.182
446.300, 0.162
446.400, 0.181
446.500, 0.159
446.600, 0.168
446.700, 0.169
446.800, 0.156
446.900, 0.156
447.000, 0.127
447.100, 0.126
447.200, 0.154
447.300, 0.126
447.400, 0.138
447.500, 0.143
447.600, 0.145
447.700, 0.158
447.800, 0.149
447.900, 0.162
448.000, 0.155
448.100, 0.160
448.200, 0.164
448.300, 0.187
448.400, 0.167
448.500, 0.182
448.600, 0.168
448.700, 0.162
448.800, 0.176
448.900, 0.141
449.000, 0.145
449.100, 0.169
449.200, 0.149
449.300, 0.147
449.400, 0.151
449.500, 0.152
449.600, 0.160
449.700, 0.156
449.800, 0.167
449.900, 0.160
450.000, 0.166
450.100, 0.152
450.200, 0.163
450.300, 0.164
450.400, 0.178
450.500, 0.175
450.600, 0.155
450.700, 0.148
450.800, 0.152
450.900, 0.152
451.000, 0.150
451.100, 0.159
451.200, 0.172
451.300, 0.149
451.400, 0.154
451.500, 0.137
451.600, 0.148
451.700, 0.157
451.800, 0.152
451.900, 0.177
452.000, 0.166
452.100, 0.165
452.200, 0.149
452.300, 0.170
452.400, 0.177
452.500, 0.162
452.600, 0.157
452.700, 0.173
452.800, 0.174
452.900, 0.171
453.000, 0.180
453.100, 0.163
453.200, 0.149
453.300, 0.172
453.400, 0.153
453.500, 0.152
453.600, 0.171
453.700, 0.191
453.800, 0.172
453.900, 0.185
454.000, 0.188
454.100, 0.176
454.200, 0.149
454.300, 0.169
454.400, 0.159
454.500, 0.171
454.600, 0.170
454.700, 0.168
454.800, 0.156
454.900, 0.167
455.000, 0.167
455.100, 0.157
455.200, 0.158
455.300, 0.149
455.400, 0.160
455.500, 0.147
455.600, 0.145
455.700, 0.154
455.800, 0.153
455.900, 0.162
456.000, 0.165
456.100, 0.198
456.200, 0.195
456.300, 0.153
456.400, 0.154
456.500, 0.159
456.600, 0.163
456.700, 0.161
456.800, 0.148
456.900, 0.188
457.000, 0.157
457.100, 0.144
457.200, 0.163
457.300, 0.155
457.400, 0.170
457.500, 0.168
457.600, 0.155
457.700, 0.148
457.800, 0.158
457.900, 0.141
458.000, 0.161
458.100, 0.168
458.200, 0.180
458.300, 0.169
458.400, 0.175
458.500, 0.186
458.600, 0.164
458.700, 0.171
458.800, 0.165
458.900, 0.183
459.000, 0.187
459.100, 0.189
459.200, 0.186
459.300, 0.178
459.400, 0.157
459.500, 0.152
459.600, 0.157
459.700, 0.155
459.800, 0.152
459.900, 0.160
460.000, 0.143
460.100, 0.184
460.200, 0.154
460.300, 0.150
460.400, 0.157
460.500, 0.165
460.600, 0.174
460.700, 0.184
460.800, 0.155
460.900, 0.169
461.000, 0.194
461.100, 0.178
461.200, 0.160
461.300, 0.175
461.400, 0.173
461.500, 0.178
461.600, 0.169
461.700, 0.195
461.800, 0.162
461.900, 0.187
462.000, 0.180
462.100, 0.165
462.200, 0.142
462.300, 0.135
462.400, 0.137
462.500, 0.136
462.600, 0.162
462.700, 0.175
462.800, 0.175
462.900, 0.159
463.000, 0.164
463.100, 0.167
463.200, 0.163
463.300, 0.163
463.400, 0.187
463.500, 0.155
463.600, 0.172
463.700, 0.179
463.800, 0.162
463.900, 0.139
464.000, 0.144
464.100, 0.143
464.200, 0.160
464.300, 0.156
464.400, 0.161
464.500, 0.149
464.600, 0.151
464.700, 0.194
464.800, 0.199
464.900, 0.152
465.000, 0.144
465.100, 0.160
465.200, 0.154
465.300, 0.157
465.400, 0.153
465.500, 0.180
465.600, 0.154
465.700, 0.159
465.800, 0.143
465.900, 0.139
466.000, 0.181
466.100, 0.158
466.200, 0.160
466.300, 0.179
466.400, 0.152
466.500, 0.161
466.600, 0.155
466.700, 0.153
466.800, 0.155
466.900, 0.155
467.000, 0.152
467.100, 0.151
467.200, 0.164
467.300, 0.150
467.400, 0.187
467.500, 0.154
467.600, 0.150
467.700, 0.157
467.800, 0.155
467.900, 0.150
468.000, 0.158
468.100, 0.141
468.200, 0.162
468.300, 0.133
468.400, 0.128
468.500, 0.109
468.600, 0.171
468.700, 0.158
468.800, 0.160
468.900, 0.198
469.000, 0.154
469.100, 0.135
469.200, 0.138
469.300, 0.169
469.400, 0.150
469.500, 0.154
469.600, 0.151
469.700, 0.161
469.800, 0.157
469.900, 0.178
470.000, 0.181
470.100, 0.145
470.200, 0.163
470.300, 0.201
470.400, 0.163
470.500, 0.136
470.600, 0.146
470.700, 0.178
470.800, 0.180
470.900, 0.160
471.000, 0.155
471.100, 0.156
471.200, 0.161
471.300, 0.169
471.400, 0.178
471.500, 0.176
471.600, 0.160
471.700, 0.168
471.800, 0.165
471.900, 0.118
472.000, 0.135
472.100, 0.145
472.200, 0.190
472.300, 0.154
472.400, 0.180
472.500, 0.168
472.600, 0.175
472.700, 0.174
472.800, 0.167
472.900, 0.148
473.000, 0.141
473.100, 0.155
473.200, 0.144
473.300, 0.119
473.400, 0.144
473.500, 0.151
473.600, 0.157
473.700, 0.145
473.800, 0.124
473.900, 0.144
474.000, 0.151
474.100, 0.162
474.200, 0.160
474.300, 0.159
474.400, 0.170
474.500, 0.153
474.600, 0.129
474.700, 0.125
474.800, 0.110
474.900, 0.141
475.000, 0.152
475.100, 0.169
475.200, 0.155
475.300, 0.142
475.400, 0.155
475.500, 0.150
475.600, 0.166
475.700, 0.172
475.800, 0.158
475.900, 0.172
476.000, 0.190
476.100, 0.178
476.200, 0.159
476.300, 0.162
476.400, 0.163
476.500, 0.165
476.600, 0.141
476.700, 0.163
476.800, 0.152
476.900, 0.152
477.000, 0.154
477.100, 0.165
477.200, 0.146
477.300, 0.150
477.400, 0.154
477.500, 0.174
477.600, 0.148
477.700, 0.186
477.800, 0.186
477.900, 0.184
478.000, 0.161
478.100, 0.161
478.200, 0.163
478.300, 0.190
478.400, 0.174
478.500, 0.165
478.600, 0.142
478.700, 0.174
478.800, 0.161
478.900, 0.165
479.000, 0.158
479.100, 0.150
479.200, 0.170
479.300, 0.168
479.400, 0.160
479.500, 0.145
479.600, 0.130
479.700, 0.164
479.800, 0.146
479.900, 0.177
480.000, 0.160
480.100, 0.142
480.200, 0.157
480.300, 0.150
480.400, 0.169
480.500, 0.167
480.600, 0.156
480.700, 0.129
480.800, 0.155
480.900, 0.140
481.000, 0.146
481.100, 0.147
481.200, 0.147
481.300, 0.171
481.400, 0.140
481.500, 0.125
481.600, 0.155
481.700, 0.157
481.800, 0.157
481.900, 0.168
482.000, 0.160
482.100, 0.144
482.200, 0.160
482.300, 0.179
482.400, 0.153
482.500, 0.168
482.600, 0.146
482.700, 0.138
482.800, 0.152
482.900, 0.153
483.000, 0.160
483.100, 0.160
483.200, 0.166
483.300, 0.161
483.400, 0.171
483.500, 0.157
483.600, 0.219
483.700, 0.181
483.800, 0.168
483.900, 0.164
484.000, 0.189
484.100, 0.173
484.200, 0.177
484.300, 0.165
484.400, 0.153
484.500, 0.169
484.600, 0.185
484.700, 0.149
484.800, 0.149
484.900, 0.150
485.000, 0.153
485.100, 0.153
485.200, 0.177
485.300, 0.147
485.400, 0.155
485.500, 0.157
485.600, 0.143
485.700, 0.155
485.800, 0.154
485.900, 0.152
486.000, 0.153
486.100, 0.164
486.200, 0.165
486.300, 0.156
486.400, 0.171
486.500, 0.153
486.600, 0.153
486.700, 0.150
486.800, 0.173
486.900, 0.164
487.000, 0.141
487.100, 0.142
487.200, 0.175
487.300, 0.185
487.400, 0.173
487.500, 0.164
487.600, 0.171
487.700, 0.167
487.800, 0.165
487.900, 0.151
488.000, 0.155
488.100, 0.164
488.200, 0.163
488.300, 0.140
488.400, 0.150
488.500, 0.133
488.600, 0.136
488.700, 0.140
488.800, 0.156
488.900, 0.160
489.000, 0.143
489.100, 0.172
489.200, 0.168
489.300, 0.155
489.400, 0.144
489.500, 0.155
489.600, 0.154
489.700, 0.143
489.800, 0.148
489.900, 0.166
490.000, 0.128
490.100, 0.162
490.200, 0.145
490.300, 0.168
490.400, 0.174
490.500, 0.182
490.600, 0.142
490.700, 0.156
490.800, 0.151
490.900, 0.152
491.000, 0.151
491.100, 0.149
491.200, 0.142
491.300, 0.137
491.400, 0.146
491.500, 0.143
491.600, 0.129
491.700, 0.137
491.800, 0.150
491.900, 0.150
492.000, 0.166
492.100, 0.167
492.200, 0.185
492.300, 0.165
492.400, 0.157
492.500, 0.168
492.600, 0.162
492.700, 0.163
492.800, 0.155
492.900, 0.171
493.000, 0.154
493.100, 0.156
493.200, 0.139
493.300, 0.142
493.400, 0.128
493.500, 0.160
493.600, 0.145
493.700, 0.142
493.800, 0.132
493.900, 0.159
494.000, 0.143
494.100, 0.132
494.200, 0.165
494.300, 0.147
494.400, 0.140
494.500, 0.147
494.600, 0.136
494.700, 0.143
494.800, 0.147
494.900, 0.144
495.000, 0.144
495.100, 0.147
495.200, 0.162
495.300, 0.145
495.400, 0.153
495.500, 0.160
495.600, 0.140
495.700, 0.142
495.800, 0.138
495.900, 0.145
496.000, 0.142
496.100, 0.154
496.200, 0.167
496.300, 0.149
496.400, 0.150
496.500, 0.160
496.600, 0.138
496.700, 0.147
496.800, 0.167
496.900, 0.161
497.000, 0.164
497.100, 0.174
497.200, 0.175
497.300, 0.175
497.400, 0.180
497.500, 0.158
497.600, 0.159
497.700, 0.151
497.800, 0.173
497.900, 0.162
498.000, 0.169
498.100, 0.153
498.200, 0.187
498.300, 0.163
498.400, 0.158
498.500, 0.178
498.600, 0.157
498.700, 0.153
498.800, 0.152
498.900, 0.167
499.000, 0.162
499.100, 0.130
499.200, 0.155
499.300, 0.149
499.400, 0.145
499.500, 0.153
499.600, 0.143
499.700, 0.156
499.800, 0.153
499.900, 0.151
500.000, 0.148
500.100, 0.145
500.200, 0.164
500.300, 0.150
500.400, 0.131
500.500, 0.136
500.600, 0.118
500.700, 0.124
500.800, 0.128
500.900, 0.149
501.000, 0.150
501.100, 0.168
501.200, 0.175
501.300, 0.150
501.400, 0.140
501.500, 0.135
501.600, 0.167
501.700, 0.145
501.800, 0.142
501.900, 0.165
502.000, 0.167
502.100, 0.163
502.200, 0.131
502.300, 0.138
502.400, 0.149
502.500, 0.129
502.600, 0.174
502.700, 0.152
502.800, 0.153
502.900, 0.162
503.000, 0.161
503.100, 0.170
503.200, 0.169
503.300, 0.157
503.400, 0.157
503.500, 0.171
503.600, 0.169
503.700, 0.133
503.800, 0.147
503.900, 0.140
504.000, 0.146
504.100, 0.154
504.200, 0.155
504.300, 0.166
504.400, 0.156
504.500, 0.146
504.600, 0.163
504.700, 0.134
504.800, 0.133
504.900, 0.128
505.000, 0.126
505.100, 0.146
505.200, 0.151
505.300, 0.138
505.400, 0.165
505.500, 0.166
505.600, 0.158
505.700, 0.154
505.800, 0.152
505.900, 0.158
506.000, 0.164
506.100, 0.179
506.200, 0.170
506.300, 0.167
506.400, 0.160
506.500, 0.158
506.600, 0.162
506.700, 0.162
506.800, 0.174
506.900, 0.165
507.000, 0.169
507.100, 0.180
507.200, 0.166
507.300, 0.182
507.400, 0.173
507.500, 0.179
507.600, 0.171
507.700, 0.167
507.800, 0.179
507.900, 0.179
508.000, 0.176
508.100, 0.162
508.200, 0.162
508.300, 0.153
508.400, 0.171
508.500, 0.157
508.600, 0.166
508.700, 0.160
508.800, 0.142
508.900, 0.141
509.000, 0.167
509.100, 0.154
509.200, 0.156
509.300, 0.151
509.400, 0.160
509.500, 0.161
509.600, 0.148
509.700, 0.159
509.800, 0.175
509.900, 0.162
510.000, 0.158
510.100, 0.163
510.200, 0.160
510.300, 0.162
510.400, 0.167
510.500, 0.159
510.600, 0.173
510.700, 0.175
510.800, 0.175
510.900, 0.165
511.000, 0.153
511.100, 0.161
511.200, 0.162
511.300, 0.169
511.400, 0.159
511.500, 0.175
511.600, 0.155
511.700, 0.162
511.800, 0.162
511.900, 0.141
512.000, 0.163
512.100, 0.170
512.200, 0.159
512.300, 0.153
512.400, 0.154
512.500, 0.153
512.600, 0.158
512.700, 0.154
512.800, 0.170
512.900, 0.164
513.000, 0.155
513.100, 0.170
513.200, 0.168
513.300, 0.189
513.400, 0.178
513.500, 0.179
513.600, 0.167
513.700, 0.165
513.800, 0.152
513.900, 0.158
514.000, 0.184
514.100, 0.186
514.200, 0.172
514.300, 0.176
514.400, 0.170
514.500, 0.168
514.600, 0.166
514.700, 0.183
514.800, 0.173
514.900, 0.178
515.000, 0.177
515.100, 0.179
515.200, 0.172
515.300, 0.170
515.400, 0.184
515.500, 0.180
515.600, 0.165
515.700, 0.176
515.800, 0.165
515.900, 0.180
516.000, 0.148
516.100, 0.158
516.200, 0.167
516.300, 0.159
516.400, 0.165
516.500, 0.148
516.600, 0.169
516.700, 0.155
516.800, 0.156
516.900, 0.162
517.000, 0.178
517.100, 0.173
517.200, 0.151
517.300, 0.157
517.400, 0.166
517.500, 0.157
517.600, 0.171
517.700, 0.159
517.800, 0.158
517.900, 0.141
518.000, 0.155
518.100, 0.174
518.200, 0.169
518.300, 0.171
518.400, 0.216
518.500, 0.207
518.600, 0.191
518.700, 0.209
518.800, 0.225
518.900, 0.238
519.000, 0.210
519.100, 0.225
519.200, 0.206
519.300, 0.205
519.400, 0.214
519.500, 0.215
519.600, 0.226
519.700, 0.216
519.800, 0.205
519.900, 0.204
520.000, 0.197
520.100, 0.216
520.200, 0.231
520.300, 0.229
520.400, 0.222
520.500, 0.206
520.600, 0.164
520.700, 0.176
520.800, 0.203
520.900, 0.180
521.000, 0.200
521.100, 0.192
521.200, 0.196
521.300, 0.175
521.400, 0.147
521.500, 0.126
521.600, 0.123
521.700, 0.140
521.800, 0.139
521.900, 0.144
522.000, 0.135
522.100, 0.145
522.200, 0.134
522.300, 0.160
522.400, 0.157
522.500, 0.138
522.600, 0.166
522.700, 0.173
522.800, 0.181
522.900, 0.179
523.000, 0.175
523.100, 0.162
523.200, 0.164
523.300, 0.152
523.400, 0.161
523.500, 0.175
523.600, 0.171
523.700, 0.191
523.800, 0.186
523.900, 0.172
524.000, 0.164
524.100, 0.165
524.200, 0.185
524.300, 0.164
524.400, 0.182
524.500, 0.168
524.600, 0.162
524.700, 0.168
524.800, 0.208
524.900, 0.213
525.000, 0.225
525.100, 0.220
525.200, 0.214
525.300, 0.233
525.400, 0.230
525.500, 0.208
525.600, 0.225
525.700, 0.211
525.800, 0.201
525.900, 0.211
526.000, 0.222
526.100, 0.207
526.200, 0.201
526.300, 0.236
526.400, 0.193
526.500, 0.193
526.600, 0.230
526.700, 0.217
526.800, 0.219
526.900, 0.224
527.000, 0.226
527.100, 0.207
527.200, 0.213
527.300, 0.217
527.400, 0.208
527.500, 0.228
527.600, 0.238
527.700, 0.233
527.800, 0.208
527.900, 0.223
528.000, 0.217
528.100, 0.224
528.200, 0.220
528.300, 0.232
528.400, 0.256
528.500, 0.241
528.600, 0.274
528.700, 0.234
528.800, 0.242
528.900, 0.254
529.000, 0.232
529.100, 0.236
529.200, 0.251
529.300, 0.256
529.400, 0.253
529.500, 0.252
529.600, 0.215
529.700, 0.204
529.800, 0.238
529.900, 0.182
530.000, 0.195
530.100, 0.225
530.200, 0.216
530.300, 0.216
530.400, 0.220
530.500, 0.208
530.600, 0.231
530.700, 0.235
530.800, 0.236
530.900, 0.213
531.000, 0.212
531.100, 0.204
531.200, 0.169
531.300, 0.169
531.400, 0.147
531.500, 0.174
531.600, 0.146
531.700, 0.149
531.800, 0.154
531.900, 0.141
532.000, 0.163
532.100, 0.173
532.200, 0.164
532.300, 0.165
532.400, 0.181
532.500, 0.193
532.600, 0.168
532.700, 0.190
532.800, 0.166
532.900, 0.164
533.000, 0.153
533.100, 0.142
533.200, 0.165
533.300, 0.158
533.400, 0.126
533.500, 0.123
533.600, 0.132
533.700, 0.134
533.800, 0.137
533.900, 0.136
534.000, 0.151
534.100, 0.163
534.200, 0.148
534.300, 0.149
534.400, 0.142
534.500, 0.148
534.600, 0.124
534.700, 0.161
534.800, 0.143
534.900, 0.134
535.000, 0.147
535.100, 0.142
535.200, 0.146
535.300, 0.135
535.400, 0.150
535.500, 0.141
535.600, 0.173
535.700, 0.144
535.800, 0.148
535.900, 0.138
536.000, 0.126
536.100, 0.149
536.200, 0.165
536.300, 0.168
536.400, 0.164
536.500, 0.168
536.600, 0.155
536.700, 0.156
536.800, 0.164
536.900, 0.164
537.000, 0.139
537.100, 0.190
537.200, 0.176
537.300, 0.170
537.400, 0.136
537.500, 0.166
537.600, 0.169
537.700, 0.156
537.800, 0.153
537.900, 0.157
538.000, 0.156
538.100, 0.189
538.200, 0.203
538.300, 0.198
538.400, 0.199
538.500, 0.185
538.600, 0.217
538.700, 0.236
538.800, 0.207
538.900, 0.225
539.000, 0.245
539.100, 0.184
539.200, 0.212
539.300, 0.184
539.400, 0.186
539.500, 0.216
539.600, 0.229
539.700, 0.220
539.800, 0.192
539.900, 0.216
540.000, 0.191
540.100, 0.172
540.200, 0.165
540.300, 0.149
540.400, 0.160
540.500, 0.147
540.600, 0.143
540.700, 0.139
540.800, 0.140
540.900, 0.150
541.000, 0.143
541.100, 0.141
541.200, 0.145
541.300, 0.157
541.400, 0.140
541.500, 0.148
541.600, 0.137
541.700, 0.159
541.800, 0.153
541.900, 0.141
542.000, 0.157
542.100, 0.137
542.200, 0.148
542.300, 0.129
542.400, 0.130
542.500, 0.130
542.600, 0.131
542.700, 0.127
542.800, 0.138
542.900, 0.155
543.000, 0.152
543.100, 0.155
543.200, 0.187
543.300, 0.194
543.400, 0.199
543.500, 0.220
543.600, 0.194
543.700, 0.187
543.800, 0.212
543.900, 0.226
544.000, 0.192
544.100, 0.218
544.200, 0.238
544.300, 0.237
544.400, 0.254
544.500, 0.303
544.600, 0.243
544.700, 0.239
544.800, 0.246
544.900, 0.236
545.000, 0.202
545.100, 0.192
545.200, 0.210
545.300, 0.202
545.400, 0.194
545.500, 0.225
545.600, 0.178
545.700, 0.220
545.800, 0.211
545.900, 0.208
546.000, 0.195
546.100, 0.233
546.200, 0.207
546.300, 0.216
546.400, 0.222
546.500, 0.222
546.600, 0.207
546.700, 0.195
546.800, 0.197
546.900, 0.194
547.000, 0.212
547.100, 0.202
547.200, 0.181
547.300, 0.207
547.400, 0.214
547.500, 0.194
547.600, 0.191
547.700, 0.200
547.800, 0.202
547.900, 0.213
548.000, 0.209
548.100, 0.217
548.200, 0.209
548.300, 0.201
548.400, 0.193
548.500, 0.177
548.600, 0.206
548.700, 0.221
548.800, 0.214
548.900, 0.218
549.000, 0.226
549.100, 0.222
549.200, 0.241
549.300, 0.227
549.400, 0.195
549.500, 0.179
549.600, 0.181
549.700, 0.185
549.800, 0.198
549.900, 0.210
550.000, 0.230
550.100, 0.209
550.200, 0.203
550.300, 0.210
550.400, 0.199
550.500, 0.196
550.600, 0.165
550.700, 0.152
550.800, 0.173
550.900, 0.225
551.000, 0.192
551.100, 0.195
551.200, 0.150
551.300, 0.186
551.400, 0.170
551.500, 0.149
551.600, 0.186
551.700, 0.182
551.800, 0.215
551.900, 0.175
552.000, 0.175
552.100, 0.172
552.200, 0.146
552.300, 0.153
552.400, 0.142
552.500, 0.156
552.600, 0.142
552.700, 0.133
552.800, 0.133
552.900, 0.136
553.000, 0.155
553.100, 0.161
553.200, 0.152
553.300, 0.163
553.400, 0.163
553.500, 0.153
553.600, 0.149
553.700, 0.168
553.800, 0.189
553.900, 0.187
554.000, 0.214
554.100, 0.171
554.200, 0.179
554.300, 0.186
554.400, 0.157
554.500, 0.177
554.600, 0.196
554.700, 0.179
554.800, 0.174
554.900, 0.170
555.000, 0.159
555.100, 0.168
555.200, 0.169
555.300, 0.185
555.400, 0.185
555.500, 0.192
555.600, 0.176
555.700, 0.163
555.800, 0.185
555.900, 0.197
556.000, 0.191
556.100, 0.185
556.200, 0.187
556.300, 0.168
556.400, 0.177
556.500, 0.157
556.600, 0.175
556.700, 0.174
556.800, 0.167
556.900, 0.161
557.000, 0.175
557.100, 0.154
557.200, 0.172
557.300, 0.149
557.400, 0.147
557.500, 0.165
557.600, 0.165
557.700, 0.171
557.800, 0.166
557.900, 0.147
558.000, 0.152
558.100, 0.155
558.200, 0.151
558.300, 0.156
558.400, 0.139
558.500, 0.144
558.600, 0.144
558.700, 0.154
558.800, 0.151
558.900, 0.170
559.000, 0.141
559.100, 0.173
559.200, 0.171
559.300, 0.193
559.400, 0.185
559.500, 0.159
559.600, 0.142
559.700, 0.137
559.800, 0.135
559.900, 0.148
560.000, 0.147
560.100, 0.162
560.200, 0.164
560.300, 0.160
560.400, 0.160
560.500, 0.169
560.600, 0.162
560.700, 0.155
560.800, 0.151
560.900, 0.160
561.000, 0.170
561.100, 0.173
561.200, 0.175
561.300, 0.164
561.400, 0.166
561.500, 0.164
561.600, 0.143
561.700, 0.150
561.800, 0.160
561.900, 0.158
562.000, 0.158
562.100, 0.146
562.200, 0.138
562.300, 0.176
562.400, 0.169
562.500, 0.161
562.600, 0.123
562.700, 0.149
562.800, 0.135
562.900, 0.147
563.000, 0.167
563.100, 0.165
563.200, 0.171
563.300, 0.157
563.400, 0.153
563.500, 0.167
563.600, 0.156
563.700, 0.154
563.800, 0.176
563.900, 0.169
564.000, 0.184
564.100, 0.197
564.200, 0.190
564.300, 0.190
564.400, 0.180
564.500, 0.247
564.600, 0.198
564.700, 0.195
564.800, 0.201
564.900, 0.145
565.000, 0.162
565.100, 0.174
565.200, 0.176
565.300, 0.149
565.400, 0.145
565.500, 0.156
565.600, 0.167
565.700, 0.162
565.800, 0.165
565.900, 0.157
566.000, 0.174
566.100, 0.169
566.200, 0.178
566.300, 0.157
566.400, 0.152
566.500, 0.153
566.600, 0.150
566.700, 0.152
566.800, 0.151
566.900, 0.151
567.000, 0.161
567.100, 0.175
567.200, 0.144
567.300, 0.138
567.400, 0.132
567.500, 0.138
567.600, 0.144
567.700, 0.158
567.800, 0.152
567.900, 0.172
568.000, 0.172
568.100, 0.173
568.200, 0.178
568.300, 0.179
568.400, 0.213
568.500, 0.201
568.600, 0.197
568.700, 0.179
568.800, 0.151
568.900, 0.188
569.000, 0.154
569.100, 0.154
569.200, 0.172
569.300, 0.157
569.400, 0.159
569.500, 0.163
569.600, 0.164
569.700, 0.164
569.800, 0.191
569.900, 0.162
570.000, 0.164
570.100, 0.159
570.200, 0.165
570.300, 0.140
570.400, 0.158
570.500, 0.157
570.600, 0.161
570.700, 0.180
570.800, 0.194
570.900, 0.162
571.000, 0.173
571.100, 0.170
571.200, 0.164
571.300, 0.159
571.400, 0.165
571.500, 0.176
571.600, 0.152
571.700, 0.154
571.800, 0.159
571.900, 0.163
572.000, 0.170
572.100, 0.204
572.200, 0.213
572.300, 0.205
572.400, 0.176
572.500, 0.150
572.600, 0.158
572.700, 0.172
572.800, 0.157
572.900, 0.166
573.000, 0.139
573.100, 0.163
573.200, 0.155
573.300, 0.163
573.400, 0.155
573.500, 0.187
573.600, 0.151
573.700, 0.145
573.800, 0.148
573.900, 0.173
574.000, 0.139
574.100, 0.158
574.200, 0.189
574.300, 0.175
574.400, 0.182
574.500, 0.203
574.600, 0.175
574.700, 0.179
574.800, 0.167
574.900, 0.182
575.000, 0.163
575.100, 0.167
575.200, 0.163
575.300, 0.161
575.400, 0.178
575.500, 0.172
575.600, 0.156
575.700, 0.153
575.800, 0.169
575.900, 0.173
576.000, 0.175
576.100, 0.175
576.200, 0.164
576.300, 0.181
576.400, 0.158
576.500, 0.141
576.600, 0.163
576.700, 0.164
576.800, 0.161
576.900, 0.197
577.000, 0.178
577.100, 0.164
577.200, 0.147
577.300, 0.177
577.400, 0.167
577.500, 0.146
577.600, 0.150
577.700, 0.161
577.800, 0.197
577.900, 0.207
578.000, 0.174
578.100, 0.183
578.200, 0.175
578.300, 0.151
578.400, 0.154
578.500, 0.158
578.600, 0.143
578.700, 0.165
578.800, 0.140
578.900, 0.124
579.000, 0.138
579.100, 0.140
579.200, 0.153
579.300, 0.127
579.400, 0.128
579.500, 0.138
579.600, 0.121
579.700, 0.121
579.800, 0.118
579.900, 0.119
580.000, 0.123
580.100, 0.129
580.200, 0.146
580.300, 0.154
580.400, 0.168
580.500, 0.151
580.600, 0.184
580.700, 0.152
580.800, 0.177
580.900, 0.212
581.000, 0.227
581.100, 0.159
581.200, 0.169
581.300, 0.155
581.400, 0.157
581.500, 0.143
581.600, 0.145
581.700, 0.158
581.800, 0.165
581.900, 0.160
582.000, 0.161
582.100, 0.175
582.200, 0.180
582.300, 0.163
582.400, 0.146
582.500, 0.164
582.600, 0.182
582.700, 0.168
582.800, 0.172
582.900, 0.155
583.000, 0.154
583.100, 0.166
583.200, 0.164
583.300, 0.171
583.400, 0.191
583.500, 0.174
583.600, 0.169
583.700, 0.170
583.800, 0.174
583.900, 0.161
584.000, 0.134
584.100, 0.129
584.200, 0.127
584.300, 0.146
584.400, 0.138
584.500, 0.141
584.600, 0.142
584.700, 0.180
584.800, 0.161
584.900, 0.186
585.000, 0.167
585.100, 0.173
585.200, 0.170
585.300, 0.162
585.400, 0.189
585.500, 0.189
585.600, 0.176
585.700, 0.185
585.800, 0.168
585.900, 0.166
586.000, 0.182
586.100, 0.165
586.200, 0.146
586.300, 0.163
586.400, 0.164
586.500, 0.148
586.600, 0.146
586.700, 0.156
586.800, 0.155
586.900, 0.193
587.000, 0.173
587.100, 0.177
587.200, 0.204
587.300, 0.173
587.400, 0.152
587.500, 0.151
587.600, 0.154
587.700, 0.157
587.800, 0.156
587.900, 0.165
588.000, 0.176
588.100, 0.188
588.200, 0.178
588.300, 0.160
588.400, 0.168
588.500, 0.168
588.600, 0.180
588.700, 0.189
588.800, 0.172
588.900, 0.178
589.000, 0.179
589.100, 0.182
589.200, 0.194
589.300, 0.167
589.400, 0.171
589.500, 0.162
589.600, 0.183
589.700, 0.170
589.800, 0.175
589.900, 0.168
590.000, 0.171
590.100, 0.183
590.200, 0.174
590.300, 0.170
590.400, 0.161
590.500, 0.157
590.600, 0.159
590.700, 0.158
590.800, 0.161
590.900, 0.148
591.000, 0.148
591.100, 0.167
591.200, 0.159
591.300, 0.158
591.400, 0.168
591.500, 0.178
591.600, 0.169
591.700, 0.177
591.800, 0.196
591.900, 0.166
592.000, 0.165
592.100, 0.172
592.200, 0.166
592.300, 0.163
592.400, 0.165
592.500, 0.121
592.600, 0.121
592.700, 0.123
592.800, 0.126
592.900, 0.131
593.000, 0.131
593.100, 0.141
593.200, 0.135
593.300, 0.155
593.400, 0.141
593.500, 0.148
593.600, 0.165
593.700, 0.149
593.800, 0.151
593.900, 0.141
594.000, 0.143
594.100, 0.144
594.200, 0.149
594.300, 0.146
594.400, 0.164
594.500, 0.136
594.600, 0.149
594.700, 0.127
594.800, 0.159
594.900, 0.144
595.000, 0.140
595.100, 0.152
595.200, 0.163
595.300, 0.167
595.400, 0.165
595.500, 0.170
595.600, 0.166
595.700, 0.161
595.800, 0.160
595.900, 0.170
596.000, 0.157
596.100, 0.185
596.200, 0.172
596.300, 0.178
596.400, 0.173
596.500, 0.197
596.600, 0.172
596.700, 0.165
596.800, 0.195
596.900, 0.167
597.000, 0.173
597.100, 0.176
597.200, 0.191
597.300, 0.193
597.400, 0.179
597.500, 0.151
597.600, 0.124
597.700, 0.155
597.800, 0.161
597.900, 0.181
598.000, 0.188
598.100, 0.194
598.200, 0.213
598.300, 0.205
598.400, 0.157
598.500, 0.164
598.600, 0.176
598.700, 0.175
598.800, 0.170
598.900, 0.164
599.000, 0.162
599.100, 0.191
599.200, 0.182
599.300, 0.170
599.400, 0.172
599.500, 0.163
599.600, 0.160
599.700, 0.153
599.800, 0.171
599.900, 0.178
600.000, 0.178
600.100, 0.191
600.200, 0.179
600.300, 0.167
600.400, 0.181
600.500, 0.171
600.600, 0.184
600.700, 0.161
600.800, 0.187
600.900, 0.200
601.000, 0.207
601.100, 0.176
601.200, 0.179
601.300, 0.153
601.400, 0.170
601.500, 0.195
601.600, 0.187
601.700, 0.180
601.800, 0.161
601.900, 0.166
602.000, 0.167
602.100, 0.175
602.200, 0.186
602.300, 0.170
602.400, 0.164
602.500, 0.156
602.600, 0.170
602.700, 0.161
602.800, 0.178
602.900, 0.161
603.000, 0.175
603.100, 0.181
603.200, 0.190
603.300, 0.196
603.400, 0.188
603.500, 0.180
603.600, 0.165
603.700, 0.175
603.800, 0.145
603.900, 0.154
604.000, 0.155
604.100, 0.165
604.200, 0.156
604.300, 0.187
604.400, 0.198
604.500, 0.195
604.600, 0.174
604.700, 0.176
604.800, 0.168
604.900, 0.170
605.000, 0.150
605.100, 0.164
605.200, 0.167
605.300, 0.156
605.400, 0.164
605.500, 0.169
605.600, 0.174
605.700, 0.163
605.800, 0.162
605.900, 0.190
606.000, 0.158
606.100, 0.151
606.200, 0.127
606.300, 0.142
606.400, 0.151
606.500, 0.181
606.600, 0.162
606.700, 0.183
606.800, 0.194
606.900, 0.195
607.000, 0.182
607.100, 0.196
607.200, 0.186
607.300, 0.215
607.400, 0.205
607.500, 0.171
607.600, 0.180
607.700, 0.181
607.800, 0.225
607.900, 0.187
608.000, 0.208
608.100, 0.172
608.200, 0.159
608.300, 0.171
608.400, 0.173
608.500, 0.175
608.600, 0.180
608.700, 0.171
608.800, 0.178
608.900, 0.185
609.000, 0.193
609.100, 0.171
609.200, 0.162
609.300, 0.168
609.400, 0.173
609.500, 0.168
609.600, 0.166
609.700, 0.160
609.800, 0.142
609.900, 0.169
610.000, 0.152
610.100, 0.161
610.200, 0.156
610.300, 0.166
610.400, 0.168
610.500, 0.185
610.600, 0.155
610.700, 0.155
610.800, 0.163
610.900, 0.162
611.000, 0.163
611.100, 0.156
611.200, 0.160
611.300, 0.178
611.400, 0.176
611.500, 0.172
611.600, 0.145
611.700, 0.175
611.800, 0.156
611.900, 0.131
612.000, 0.151
612.100, 0.161
612.200, 0.139
612.300, 0.141
612.400, 0.149
612.500, 0.181
612.600, 0.159
612.700, 0.170
612.800, 0.150
612.900, 0.163
613.000, 0.172
613.100, 0.158
613.200, 0.155
613.300, 0.156
613.400, 0.155
613.500, 0.129
613.600, 0.137
613.700, 0.143
613.800, 0.123
613.900, 0.124
614.000, 0.129
614.100, 0.112
614.200, 0.139
614.300, 0.124
614.400, 0.155
614.500, 0.124
614.600, 0.106
614.700, 0.136
614.800, 0.145
614.900, 0.124
615.000, 0.130
615.100, 0.175
615.200, 0.174
615.300, 0.162
615.400, 0.159
615.500, 0.179
615.600, 0.152
615.700, 0.153
615.800, 0.147
615.900, 0.145
616.000, 0.153
616.100, 0.174
616.200, 0.154
616.300, 0.179
616.400, 0.159
616.500, 0.175
616.600, 0.160
616.700, 0.182
616.800, 0.148
616.900, 0.168
617.000, 0.148
617.100, 0.157
617.200, 0.170
617.300, 0.156
617.400, 0.150
617.500, 0.159
617.600, 0.162
617.700, 0.160
617.800, 0.155
617.900, 0.159
618.000, 0.160
618.100, 0.158
618.200, 0.169
618.300, 0.166
618.400, 0.154
618.500, 0.141
618.600, 0.162
618.700, 0.141
618.800, 0.167
618.900, 0.158
619.000, 0.154
619.100, 0.177
619.200, 0.174
619.300, 0.183
619.400, 0.182
619.500, 0.166
619.600, 0.161
619.700, 0.184
619.800, 0.164
619.900, 0.187
620.000, 0.151
620.100, 0.179
620.200, 0.143
620.300, 0.163
620.400, 0.193
620.500, 0.157
620.600, 0.159
620.700, 0.163
620.800, 0.158
620.900, 0.163
621.000, 0.160
621.100, 0.160
621.200, 0.154
621.300, 0.157
621.400, 0.140
621.500, 0.148
621.600, 0.181
621.700, 0.155
621.800, 0.128
621.900, 0.130
622.000, 0.144
622.100, 0.178
622.200, 0.131
622.300, 0.165
622.400, 0.146
622.500, 0.159
622.600, 0.160
622.700, 0.144
622.800, 0.160
622.900, 0.139
623.000, 0.168
623.100, 0.168
623.200, 0.174
623.300, 0.175
623.400, 0.165
623.500, 0.153
623.600, 0.148
623.700, 0.132
623.800, 0.185
623.900, 0.170
624.000, 0.158
624.100, 0.152
624.200, 0.159
624.300, 0.162
624.400, 0.164
624.500, 0.184
624.600, 0.155
624.700, 0.163
624.800, 0.168
624.900, 0.141
625.000, 0.167
625.100, 0.146
625.200, 0.152
625.300, 0.151
625.400, 0.159
625.500, 0.167
625.600, 0.157
625.700, 0.180
625.800, 0.164
625.900, 0.177
626.000, 0.162
626.100, 0.165
626.200, 0.147
626.300, 0.152
626.400, 0.141
626.500, 0.147
626.600, 0.174
626.700, 0.163
626.800, 0.133
626.900, 0.167
627.000, 0.159
627.100, 0.142
627.200, 0.169
627.300, 0.145
627.400, 0.159
627.500, 0.150
627.600, 0.152
627.700, 0.154
627.800, 0.181
627.900, 0.173
628.000, 0.150
628.100, 0.136
628.200, 0.146
628.300, 0.147
628.400, 0.164
628.500, 0.159
628.600, 0.167
628.700, 0.158
628.800, 0.191
628.900, 0.186
629.000, 0.183
629.100, 0.149
629.200, 0.140
629.300, 0.168
629.400, 0.149
629.500, 0.138
629.600, 0.156
629.700, 0.159
629.800, 0.173
629.900, 0.157
630.000, 0.149
630.100, 0.172
630.200, 0.157
630.300, 0.162
630.400, 0.153
630.500, 0.150
630.600, 0.197
630.700, 0.194
630.800, 0.178
630.900, 0.189
631.000, 0.127
631.100, 0.137
631.200, 0.141
631.300, 0.117
631.400, 0.130
631.500, 0.136
631.600, 0.121
631.700, 0.143
631.800, 0.142
631.900, 0.144
632.000, 0.158
632.100, 0.178
632.200, 0.151
632.300, 0.180
632.400, 0.211
632.500, 0.227
632.600, 0.253
632.700, 0.243
632.800, 0.243
632.900, 0.240
633.000, 0.200
633.100, 0.225
633.200, 0.223
633.300, 0.181
633.400, 0.216
633.500, 0.208
633.600, 0.200
633.700, 0.193
633.800, 0.172
633.900, 0.195
634.000, 0.179
634.100, 0.225
634.200, 0.207
634.300, 0.216
634.400, 0.236
634.500, 0.253
634.600, 0.238
634.700, 0.242
634.800, 0.222
634.900, 0.245
635.000, 0.247
635.100, 0.263
635.200, 0.233
635.300, 0.231
635.400, 0.210
635.500, 0.228
635.600, 0.230
635.700, 0.260
635.800, 0.270
635.900, 0.245
636.000, 0.249
636.100, 0.249
636.200, 0.253
636.300, 0.250
636.400, 0.254
636.500, 0.236
636.600, 0.236
636.700, 0.263
636.800, 0.255
636.900, 0.231
637.000, 0.242
637.100, 0.222
637.200, 0.243
637.300, 0.227
637.400, 0.227
637.500, 0.246
637.600, 0.253
637.700, 0.231
637.800, 0.232
637.900, 0.216
638.000, 0.242
638.100, 0.236
638.200, 0.249
638.300, 0.238
638.400, 0.239
638.500, 0.218
638.600, 0.217
638.700, 0.225
638.800, 0.233
638.900, 0.240
639.000, 0.196
639.100, 0.188
639.200, 0.182
639.300, 0.194
639.400, 0.190
639.500, 0.211
639.600, 0.215
639.700, 0.217
639.800, 0.194
639.900, 0.216
640.000, 0.191
640.100, 0.206
640.200, 0.223
640.300, 0.220
640.400, 0.233
640.500, 0.231
640.600, 0.241
640.700, 0.219
640.800, 0.195
640.900, 0.194
641.000, 0.223
641.100, 0.197
641.200, 0.213
641.300, 0.189
641.400, 0.163
641.500, 0.204
641.600, 0.200
641.700, 0.213
641.800, 0.219
641.900, 0.225
642.000, 0.211
642.100, 0.233
642.200, 0.258
642.300, 0.228
642.400, 0.254
642.500, 0.251
642.600, 0.291
642.700, 0.269
642.800, 0.263
642.900, 0.290
643.000, 0.256
643.100, 0.244
643.200, 0.258
643.300, 0.237
643.400, 0.251
643.500, 0.229
643.600, 0.217
643.700, 0.222
643.800, 0.223
643.900, 0.194
644.000, 0.204
644.100, 0.196
644.200, 0.223
644.300, 0.215
644.400, 0.192
644.500, 0.230
644.600, 0.213
644.700, 0.209
644.800, 0.180
644.900, 0.216
645.000, 0.199
645.100, 0.225
645.200, 0.219
645.300, 0.222
645.400, 0.217
645.500, 0.195
645.600, 0.220
645.700, 0.221
645.800, 0.227
645.900, 0.197
646.000, 0.178
646.100, 0.201
646.200, 0.182
646.300, 0.219
646.400, 0.223
646.500, 0.211
646.600, 0.211
646.700, 0.214
646.800, 0.206
646.900, 0.197
647.000, 0.204
647.100, 0.213
647.200, 0.188
647.300, 0.183
647.400, 0.149
647.500, 0.159
647.600, 0.188
647.700, 0.183
647.800, 0.188
647.900, 0.164
648.000, 0.170
648.100, 0.182
648.200, 0.188
648.300, 0.167
648.400, 0.176
648.500, 0.215
648.600, 0.208
648.700, 0.215
648.800, 0.203
648.900, 0.179
649.000, 0.179
649.100, 0.173
649.200, 0.183
649.300, 0.170
649.400, 0.148
649.500, 0.175
649.600, 0.179
649.700, 0.215
649.800, 0.158
649.900, 0.176
650.000, 0.178
650.100, 0.180
650.200, 0.178
650.300, 0.205
650.400, 0.187
650.500, 0.178
650.600, 0.160
650.700, 0.164
650.800, 0.157
650.900, 0.189
651.000, 0.211
651.100, 0.219
651.200, 0.236
651.300, 0.250
651.400, 0.216
651.500, 0.218
651.600, 0.203
651.700, 0.187
651.800, 0.176
651.900, 0.183
652.000, 0.190
652.100, 0.184
652.200, 0.205
652.300, 0.190
652.400, 0.199
652.500, 0.191
652.600, 0.171
652.700, 0.179
652.800, 0.179
652.900, 0.185
653.000, 0.197
653.100, 0.189
653.200, 0.170
653.300, 0.166
653.400, 0.182
653.500, 0.182
653.600, 0.170
653.700, 0.160
653.800, 0.165
653.900, 0.174
654.000, 0.164
654.100, 0.178
654.200, 0.179
654.300, 0.179
654.400, 0.162
654.500, 0.167
654.600, 0.178
654.700, 0.174
654.800, 0.161
654.900, 0.172
655.000, 0.159
655.100, 0.174
655.200, 0.142
655.300, 0.139
655.400, 0.175
655.500, 0.200
655.600, 0.184
655.700, 0.211
655.800, 0.210
655.900, 0.220
656.000, 0.171
656.100, 0.199
656.200, 0.206
656.300, 0.190
656.400, 0.242
656.500, 0.239
656.600, 0.227
656.700, 0.199
656.800, 0.201
656.900, 0.180
657.000, 0.195
657.100, 0.184
657.200, 0.205
657.300, 0.177
657.400, 0.171
657.500, 0.206
657.600, 0.189
657.700, 0.159
657.800, 0.167
657.900, 0.176
658.000, 0.189
658.100, 0.212
658.200, 0.231
658.300, 0.200
658.400, 0.188
658.500, 0.181
658.600, 0.193
658.700, 0.217
658.800, 0.202
658.900, 0.186
659.000, 0.168
659.100, 0.192
659.200, 0.161
659.300, 0.160
659.400, 0.198
659.500, 0.156
659.600, 0.185
659.700, 0.190
659.800, 0.183
659.900, 0.194
660.000, 0.187
660.100, 0.161
660.200, 0.162
660.300, 0.157
660.400, 0.152
660.500, 0.173
660.600, 0.140
660.700, 0.164
660.800, 0.160
660.900, 0.163
661.000, 0.181
661.100, 0.168
661.200, 0.174
661.300, 0.194
661.400, 0.183
661.500, 0.186
661.600, 0.161
661.700, 0.185
661.800, 0.168
661.900, 0.160
662.000, 0.176
662.100, 0.167
662.200, 0.169
662.300, 0.166
662.400, 0.156
662.500, 0.167
662.600, 0.179
662.700, 0.178
662.800, 0.202
662.900, 0.170
663.000, 0.177
663.100, 0.177
663.200, 0.176
663.300, 0.159
663.400, 0.182
663.500, 0.168
663.600, 0.180
663.700, 0.161
663.800, 0.168
663.900, 0.172
664.000, 0.161
664.100, 0.166
664.200, 0.189
664.300, 0.186
664.400, 0.174
664.500, 0.181
664.600, 0.179
664.700, 0.164
664.800, 0.178
664.900, 0.168
665.000, 0.151
665.100, 0.149
665.200, 0.144
665.300, 0.124
665.400, 0.151
665.500, 0.160
665.600, 0.142
665.700, 0.149
665.800, 0.147
665.900, 0.140
666.000, 0.128
666.100, 0.123
666.200, 0.134
666.300, 0.146
666.400, 0.168
666.500, 0.180
666.600, 0.167
666.700, 0.157
666.800, 0.171
666.900, 0.194
667.000, 0.177
667.100, 0.182
667.200, 0.142
667.300, 0.176
667.400, 0.186
667.500, 0.180
667.600, 0.157
667.700, 0.152
667.800, 0.155
667.900, 0.196
668.000, 0.162
668.100, 0.191
668.200, 0.163
668.300, 0.169
668.400, 0.162
668.500, 0.156
668.600, 0.172
668.700, 0.156
668.800, 0.166
668.900, 0.167
669.000, 0.171
669.100, 0.204
669.200, 0.186
669.300, 0.202
669.400, 0.205
669.500, 0.156
669.600, 0.187
669.700, 0.167
669.800, 0.162
669.900, 0.165
670.000, 0.163
670.100, 0.164
670.200, 0.155
670.300, 0.160
670.400, 0.161
670.500, 0.163
670.600, 0.168
670.700, 0.197
670.800, 0.166
670.900, 0.179
671.000, 0.177
671.100, 0.153
671.200, 0.180
671.300, 0.181
671.400, 0.179
671.500, 0.178
671.600, 0.195
671.700, 0.184
671.800, 0.188
671.900, 0.210
672.000, 0.203
672.100, 0.191
672.200, 0.203
672.300, 0.179
672.400, 0.223
672.500, 0.196
672.600, 0.197
672.700, 0.224
672.800, 0.200
672.900, 0.200
673.000, 0.194
673.100, 0.206
673.200, 0.193
673.300, 0.210
673.400, 0.210
673.500, 0.182
673.600, 0.190
673.700, 0.208
673.800, 0.198
673.900, 0.178
674.000, 0.195
674.100, 0.207
674.200, 0.203
674.300, 0.209
674.400, 0.185
674.500, 0.183
674.600, 0.155
674.700, 0.161
674.800, 0.169
674.900, 0.179
675.000, 0.198
675.100, 0.184
675.200, 0.189
675.300, 0.155
675.400, 0.153
675.500, 0.195
675.600, 0.160
675.700, 0.175
675.800, 0.182
675.900, 0.187
676.000, 0.198
676.100, 0.191
676.200, 0.177
676.300, 0.174
676.400, 0.192
676.500, 0.141
676.600, 0.147
676.700, 0.142
676.800, 0.117
676.900, 0.132
677.000, 0.136
677.100, 0.160
677.200, 0.158
677.300, 0.142
677.400, 0.143
677.500, 0.150
677.600, 0.129
677.700, 0.151
677.800, 0.120
677.900, 0.112
678.000, 0.132
678.100, 0.140
678.200, 0.125
678.300, 0.130
678.400, 0.119
678.500, 0.127
678.600, 0.140
678.700, 0.141
678.800, 0.133
678.900, 0.114
679.000, 0.143
679.100, 0.138
679.200, 0.145
679.300, 0.148
679.400, 0.166
679.500, 0.171
679.600, 0.164
679.700, 0.177
679.800, 0.163
679.900, 0.136
680.000, 0.154
680.100, 0.130
680.200, 0.127
680.300, 0.185
680.400, 0.141
680.500, 0.167
680.600, 0.181
680.700, 0.146
680.800, 0.158
680.900, 0.159
681.000, 0.157
681.100, 0.140
681.200, 0.139
681.300, 0.146
681.400, 0.153
681.500, 0.150
681.600, 0.163
681.700, 0.157
681.800, 0.149
681.900, 0.179
682.000, 0.160
682.100, 0.170
682.200, 0.189
682.300, 0.152
682.400, 0.164
682.500, 0.152
682.600, 0.141
682.700, 0.164
682.800, 0.146
682.900, 0.128
683.000, 0.158
683.100, 0.140
683.200, 0.149
683.300, 0.134
683.400, 0.132
683.500, 0.127
683.600, 0.145
683.700, 0.128
683.800, 0.115
683.900, 0.132
684.000, 0.127
684.100, 0.122
684.200, 0.110
684.300, 0.151
684.400, 0.172
684.500, 0.166
684.600, 0.156
684.700, 0.166
684.800, 0.165
684.900, 0.142
685.000, 0.182
685.100, 0.159
685.200, 0.173
685.300, 0.193
685.400, 0.177
685.500, 0.162
685.600, 0.158
685.700, 0.143
685.800, 0.174
685.900, 0.197
686.000, 0.160
686.100, 0.178
686.200, 0.177
686.300, 0.172
686.400, 0.183
686.500, 0.170
686.600, 0.167
686.700, 0.173
686.800, 0.184
686.900, 0.179
687.000, 0.183
687.100, 0.183
687.200, 0.182
687.300, 0.184
687.400, 0.158
687.500, 0.201
687.600, 0.173
687.700, 0.171
687.800, 0.175
687.900, 0.182
688.000, 0.178
688.100, 0.180
688.200, 0.167
688.300, 0.190
688.400, 0.175
688.500, 0.180
688.600, 0.181
688.700, 0.185
688.800, 0.189
688.900, 0.185
689.000, 0.199
689.100, 0.165
689.200, 0.177
689.300, 0.182
689.400, 0.170
689.500, 0.169
689.600, 0.171
689.700, 0.197
689.800, 0.165
689.900, 0.180
690.000, 0.183
690.100, 0.187
690.200, 0.186
690.300, 0.181
690.400, 0.185
690.500, 0.208
690.600, 0.206
690.700, 0.207
690.800, 0.213
690.900, 0.212
691.000, 0.205
691.100, 0.210
691.200, 0.200
691.300, 0.213
691.400, 0.231
691.500, 0.204
691.600, 0.162
691.700, 0.175
691.800, 0.193
691.900, 0.181
692.000, 0.190
692.100, 0.169
692.200, 0.161
692.300, 0.160
692.400, 0.144
692.500, 0.161
692.600, 0.155
692.700, 0.157
692.800, 0.146
692.900, 0.179
693.000, 0.187
693.100, 0.169
693.200, 0.165
693.300, 0.144
693.400, 0.178
693.500, 0.184
693.600, 0.193
693.700, 0.169
693.800, 0.169
693.900, 0.157
694.000, 0.179
694.100, 0.186
694.200, 0.184
694.300, 0.177
694.400, 0.183
694.500, 0.173
694.600, 0.151
694.700, 0.168
694.800, 0.167
694.900, 0.184
695.000, 0.157
695.100, 0.232
695.200, 0.277
695.300, 0.267
695.400, 0.221
695.500, 0.206
695.600, 0.195
695.700, 0.211
695.800, 0.222
695.900, 0.204
696.000, 0.235
696.100, 0.223
696.200, 0.220
696.300, 0.204
696.400, 0.218
696.500, 0.198
696.600, 0.236
696.700, 0.209
696.800, 0.198
696.900, 0.220
697.000, 0.215
697.100, 0.207
697.200, 0.191
697.300, 0.182
697.400, 0.190
697.500, 0.210
697.600, 0.214
697.700, 0.227
697.800, 0.215
697.900, 0.215
698.000, 0.208
698.100, 0.192
698.200, 0.215
698.300, 0.209
698.400, 0.249
698.500, 0.227
698.600, 0.219
698.700, 0.230
698.800, 0.221
698.900, 0.215
699.000, 0.226
699.100, 0.264
699.200, 0.236
699.300, 0.230
699.400, 0.217
699.500, 0.223
699.600, 0.219
699.700, 0.239
699.800, 0.236
699.900, 0.245
700.000, 0.242
700.100, 0.227
700.200, 0.234
700.300, 0.223
700.400, 0.258
700.500, 0.260
700.600, 0.269
700.700, 0.260
700.800, 0.242
700.900, 0.233
701.000, 0.232
701.100, 0.239
701.200, 0.244
701.300, 0.262
701.400, 0.244
701.500, 0.255
701.600, 0.248
701.700, 0.265
701.800, 0.264
701.900, 0.254
702.000, 0.235
702.100, 0.239
702.200, 0.261
702.300, 0.257
702.400, 0.258
702.500, 0.274
702.600, 0.264
702.700, 0.289
702.800, 0.291
702.900, 0.254
703.000, 0.245
703.100, 0.229
703.200, 0.208
703.300, 0.216
703.400, 0.209
703.500, 0.212
703.600, 0.199
703.700, 0.216
703.800, 0.222
703.900, 0.213
704.000, 0.196
704.100, 0.197
704.200, 0.213
704.300, 0.219
704.400, 0.246
704.500, 0.274
704.600, 0.251
704.700, 0.280
704.800, 0.246
704.900, 0.228
705.000, 0.232
705.100, 0.227
705.200, 0.210
705.300, 0.210
705.400, 0.185
705.500, 0.184
705.600, 0.182
705.700, 0.178
705.800, 0.173
705.900, 0.182
706.000, 0.192
706.100, 0.201
706.200, 0.189
706.300, 0.176
706.400, 0.186
706.500, 0.196
706.600, 0.177
706.700, 0.191
706.800, 0.172
706.900, 0.195
707.000, 0.187
707.100, 0.185
707.200, 0.195
707.300, 0.178
707.400, 0.188
707.500, 0.190
707.600, 0.212
707.700, 0.193
707.800, 0.202
707.900, 0.195
708.000, 0.187
708.100, 0.191
708.200, 0.195
708.300, 0.187
708.400, 0.204
708.500, 0.204
708.600, 0.203
708.700, 0.193
708.800, 0.185
708.900, 0.194
709.000, 0.204
709.100, 0.192
709.200, 0.195
709.300, 0.181
709.400, 0.176
709.500, 0.215
709.600, 0.222
709.700, 0.192
709.800, 0.193
709.900, 0.191
710.000, 0.209
710.100, 0.203
710.200, 0.210
710.300, 0.224
710.400, 0.202
710.500, 0.214
710.600, 0.223
710.700, 0.200
710.800, 0.193
710.900, 0.195
711.000, 0.186
711.100, 0.199
711.200, 0.211
711.300, 0.208
711.400, 0.207
711.500, 0.203
711.600, 0.215
711.700, 0.203
711.800, 0.215
711.900, 0.185
712.000, 0.213
712.100, 0.206
712.200, 0.210
712.300, 0.222
712.400, 0.217
712.500, 0.217
712.600, 0.195
712.700, 0.226
712.800, 0.215
712.900, 0.253
713.000, 0.233
713.100, 0.224
713.200, 0.230
713.300, 0.199
713.400, 0.191
713.500, 0.191
713.600, 0.201
713.700, 0.200
713.800, 0.183
713.900, 0.168
714.000, 0.148
714.100, 0.167
714.200, 0.165
714.300, 0.164
714.400, 0.144
714.500, 0.167
714.600, 0.168
714.700, 0.170
714.800, 0.176
714.900, 0.177
715.000, 0.180
715.100, 0.201
715.200, 0.180
715.300, 0.196
715.400, 0.185
715.500, 0.196
715.600, 0.179
715.700, 0.195
715.800, 0.179
715.900, 0.158
716.000, 0.158
716.100, 0.163
716.200, 0.152
716.300, 0.156
716.400, 0.157
716.500, 0.177
716.600, 0.168
716.700, 0.177
716.800, 0.165
716.900, 0.174
717.000, 0.171
717.100, 0.168
717.200, 0.145
717.300, 0.156
717.400, 0.148
717.500, 0.147
717.600, 0.142
717.700, 0.136
717.800, 0.151
717.900, 0.150
718.000, 0.163
718.100, 0.172
718.200, 0.150
718.300, 0.150
718.400, 0.146
718.500, 0.177
718.600, 0.175
718.700, 0.176
718.800, 0.184
718.900, 0.174
719.000, 0.177
719.100, 0.156
719.200, 0.143
719.300, 0.151
719.400, 0.148
719.500, 0.159
719.600, 0.165
719.700, 0.168
719.800, 0.160
719.900, 0.157
720.000, 0.175
720.100, 0.162
720.200, 0.166
720.300, 0.177
720.400, 0.176
720.500, 0.176
720.600, 0.180
720.700, 0.170
720.800, 0.191
720.900, 0.173
721.000, 0.183
721.100, 0.175
721.200, 0.184
721.300, 0.193
721.400, 0.225
721.500, 0.207
721.600, 0.205
721.700, 0.194
721.800, 0.203
721.900, 0.193
722.000, 0.202
722.100, 0.208
722.200, 0.202
722.300, 0.211
722.400, 0.193
722.500, 0.192
722.600, 0.213
722.700, 0.223
722.800, 0.210
722.900, 0.212
723.000, 0.211
723.100, 0.220
723.200, 0.208
723.300, 0.229
723.400, 0.214
723.500, 0.214
723.600, 0.201
723.700, 0.218
723.800, 0.212
723.900, 0.209
724.000, 0.224
724.100, 0.205
724.200, 0.220
724.300, 0.213
724.400, 0.205
724.500, 0.199
724.600, 0.205
724.700, 0.198
724.800, 0.191
724.900, 0.200
725.000, 0.214
725.100, 0.228
725.200, 0.196
725.300, 0.201
725.400, 0.212
725.500, 0.212
725.600, 0.213
725.700, 0.196
725.800, 0.205
725.900, 0.188
726.000, 0.211
726.100, 0.228
726.200, 0.224
726.300, 0.205
726.400, 0.182
726.500, 0.209
726.600, 0.192
726.700, 0.205
726.800, 0.210
726.900, 0.210
727.000, 0.199
727.100, 0.221
727.200, 0.204
727.300, 0.212
727.400, 0.227
727.500, 0.210
727.600, 0.213
727.700, 0.200
727.800, 0.203
727.900, 0.209
728.000, 0.206
728.100, 0.208
728.200, 0.189
728.300, 0.189
728.400, 0.204
728.500, 0.206
728.600, 0.216
728.700, 0.203
728.800, 0.191
728.900, 0.214
729.000, 0.213
729.100, 0.204
729.200, 0.211
729.300, 0.211
729.400, 0.188
729.500, 0.200
729.600, 0.190
729.700, 0.220
729.800, 0.241
729.900, 0.202
730.000, 0.212
730.100, 0.223
730.200, 0.216
730.300, 0.206
730.400, 0.198
730.500, 0.194
730.600, 0.202
730.700, 0.219
730.800, 0.209
730.900, 0.225
731.000, 0.246
731.100, 0.238
731.200, 0.203
731.300, 0.214
731.400, 0.241
731.500, 0.233
731.600, 0.228
731.700, 0.233
731.800, 0.219
731.900, 0.205
732.000, 0.199
732.100, 0.218
732.200, 0.223
732.300, 0.231
732.400, 0.232
732.500, 0.240
732.600, 0.223
732.700, 0.217
732.800, 0.229
732.900, 0.209
733.000, 0.219
733.100, 0.220
733.200, 0.218
733.300, 0.220
733.400, 0.192
733.500, 0.189
733.600, 0.200
733.700, 0.176
733.800, 0.186
733.900, 0.192
734.000, 0.180
734.100, 0.186
734.200, 0.185
734.300, 0.185
734.400, 0.158
734.500, 0.163
734.600, 0.182
734.700, 0.171
734.800, 0.174
734.900, 0.186
735.000, 0.190
735.100, 0.164
735.200, 0.194
735.300, 0.200
735.400, 0.199
735.500, 0.222
735.600, 0.193
735.700, 0.195
735.800, 0.182
735.900, 0.232
736.000, 0.198
736.100, 0.200
736.200, 0.195
736.300, 0.164
736.400, 0.171
736.500, 0.177
736.600, 0.175
736.700, 0.137
736.800, 0.155
736.900, 0.144
737.000, 0.132
737.100, 0.140
737.200, 0.141
737.300, 0.142
737.400, 0.135
737.500, 0.145
737.600, 0.140
737.700, 0.132
737.800, 0.134
737.900, 0.142
738.000, 0.126
738.100, 0.135
738.200, 0.122
738.300, 0.134
738.400, 0.124
738.500, 0.139
738.600, 0.135
738.700, 0.138
738.800, 0.135
738.900, 0.129
739.000, 0.127
739.100, 0.146
739.200, 0.139
739.300, 0.133
739.400, 0.148
739.500, 0.141
739.600, 0.138
739.700, 0.140
739.800, 0.142
739.900, 0.176
740.000, 0.142
740.100, 0.139
740.200, 0.146
740.300, 0.140
740.400, 0.129
740.500, 0.139
740.600, 0.134
740.700, 0.143
740.800, 0.177
740.900, 0.176
741.000, 0.148
741.100, 0.184
741.200, 0.166
741.300, 0.152
741.400, 0.181
741.500, 0.175
741.600, 0.155
741.700, 0.177
741.800, 0.166
741.900, 0.155
742.000, 0.180
742.100, 0.166
742.200, 0.156
742.300, 0.182
742.400, 0.170
742.500, 0.177
742.600, 0.209
742.700, 0.197
742.800, 0.207
742.900, 0.175
743.000, 0.169
743.100, 0.172
743.200, 0.157
743.300, 0.176
743.400, 0.189
743.500, 0.174
743.600, 0.162
743.700, 0.168
743.800, 0.191
743.900, 0.178
744.000, 0.178
744.100, 0.222
744.200, 0.204
744.300, 0.168
744.400, 0.186
744.500, 0.167
744.600, 0.152
744.700, 0.163
744.800, 0.174
744.900, 0.160
745.000, 0.178
745.100, 0.174
745.200, 0.175
745.300, 0.196
745.400, 0.160
745.500, 0.154
745.600, 0.151
745.700, 0.163
745.800, 0.167
745.900, 0.188
746.000, 0.176
746.100, 0.183
746.200, 0.149
746.300, 0.140
746.400, 0.135
746.500, 0.135
746.600, 0.129
746.700, 0.131
746.800, 0.138
746.900, 0.130
747.000, 0.142
747.100, 0.130
747.200, 0.143
747.300, 0.148
747.400, 0.142
747.500, 0.142
747.600, 0.126
747.700, 0.139
747.800, 0.133
747.900, 0.149
748.000, 0.138
748.100, 0.136
748.200, 0.145
748.300, 0.146
748.400, 0.148
748.500, 0.147
748.600, 0.200
748.700, 0.168
748.800, 0.180
748.900, 0.202
749.000, 0.169
749.100, 0.149
749.200, 0.139
749.300, 0.141
749.400, 0.130
749.500, 0.129
749.600, 0.131
749.700, 0.132
749.800, 0.143
749.900, 0.149
750.000, 0.169
750.100, 0.165
750.200, 0.128
750.300, 0.148
750.400, 0.144
750.500, 0.127
750.600, 0.152
750.700, 0.193
750.800, 0.179
750.900, 0.182
751.000, 0.193
751.100, 0.188
751.200, 0.178
751.300, 0.208
751.400, 0.176
751.500, 0.180
751.600, 0.159
751.700, 0.163
751.800, 0.160
751.900, 0.164
752.000, 0.173
752.100, 0.196
752.200, 0.176
752.300, 0.178
752.400, 0.193
752.500, 0.185
752.600, 0.187
752.700, 0.201
752.800, 0.195
752.900, 0.203
753.000, 0.184
753.100, 0.159
753.200, 0.183
753.300, 0.204
753.400, 0.207
753.500, 0.194
753.600, 0.168
753.700, 0.182
753.800, 0.188
753.900, 0.187
754.000, 0.202
754.100, 0.206
754.200, 0.183
754.300, 0.169
754.400, 0.183
754.500, 0.168
754.600, 0.222
754.700, 0.184
754.800, 0.189
754.900, 0.164
755.000, 0.194
755.100, 0.178
755.200, 0.177
755.300, 0.160
755.400, 0.204
755.500, 0.181
755.600, 0.183
755.700, 0.180
755.800, 0.188
755.900, 0.203
756.000, 0.210
756.100, 0.199
756.200, 0.190
756.300, 0.167
756.400, 0.219
756.500, 0.160
756.600, 0.157
756.700, 0.146
756.800, 0.148
756.900, 0.166
757.000, 0.165
757.100, 0.161
757.200, 0.169
757.300, 0.176
757.400, 0.162
757.500, 0.167
757.600, 0.185
757.700, 0.166
757.800, 0.194
757.900, 0.189
758.000, 0.196
758.100, 0.218
758.200, 0.176
758.300, 0.172
758.400, 0.177
758.500, 0.180
758.600, 0.177
758.700, 0.155
758.800, 0.160
758.900, 0.174
759.000, 0.181
759.100, 0.174
759.200, 0.177
759.300, 0.177
759.400, 0.188
759.500, 0.184
759.600, 0.170
759.700, 0.172
759.800, 0.189
759.900, 0.170
760.000, 0.191
760.100, 0.185
760.200, 0.174
760.300, 0.181
760.400, 0.185
760.500, 0.182
760.600, 0.179
760.700, 0.179
760.800, 0.188
760.900, 0.191
761.000, 0.198
761.100, 0.206
761.200, 0.195
761.300, 0.187
761.400, 0.177
761.500, 0.201
761.600, 0.186
761.700, 0.160
761.800, 0.173
761.900, 0.179
762.000, 0.173
762.100, 0.147
762.200, 0.168
762.300, 0.164
762.400, 0.177
762.500, 0.169
762.600, 0.171
762.700, 0.173
762.800, 0.165
762.900, 0.168
763.000, 0.194
763.100, 0.150
763.200, 0.163
763.300, 0.162
763.400, 0.156
763.500, 0.150
763.600, 0.180
763.700, 0.164
763.800, 0.180
763.900, 0.164
764.000, 0.164
764.100, 0.180
764.200, 0.171
764.300, 0.183
764.400, 0.192
764.500, 0.191
764.600, 0.182
764.700, 0.181
764.800, 0.205
764.900, 0.196
765.000, 0.172
765.100, 0.174
765.200, 0.158
765.300, 0.159
765.400, 0.149
765.500, 0.169
765.600, 0.211
765.700, 0.193
765.800, 0.193
765.900, 0.220
766.000, 0.212
766.100, 0.214
766.200, 0.191
766.300, 0.201
766.400, 0.186
766.500, 0.213
766.600, 0.206
766.700, 0.190
766.800, 0.193
766.900, 0.221
767.000, 0.213
767.100, 0.219
767.200, 0.186
767.300, 0.196
767.400, 0.221
767.500, 0.189
767.600, 0.216
767.700, 0.200
767.800, 0.227
767.900, 0.215
768.000, 0.188
768.100, 0.181
768.200, 0.176
768.300, 0.165
768.400, 0.152
768.500, 0.140
768.600, 0.162
768.700, 0.163
768.800, 0.158
768.900, 0.138
769.000, 0.148
769.100, 0.137
769.200, 0.143
769.300, 0.151
769.400, 0.143
769.500, 0.145
769.600, 0.141
769.700, 0.152
769.800, 0.163
769.900, 0.148
770.000, 0.140
770.100, 0.141
770.200, 0.148
770.300, 0.162
770.400, 0.167
770.500, 0.163
770.600, 0.187
770.700, 0.159
770.800, 0.173
770.900, 0.208
771.000, 0.154
771.100, 0.176
771.200, 0.180
771.300, 0.184
771.400, 0.205
771.500, 0.205
771.600, 0.189
771.700, 0.234
771.800, 0.177
771.900, 0.171
772.000, 0.187
772.100, 0.204
772.200, 0.201
772.300, 0.197
772.400, 0.199
772.500, 0.189
772.600, 0.168
772.700, 0.182
772.800, 0.164
772.900, 0.187
773.000, 0.186
773.100, 0.186
773.200, 0.209
773.300, 0.191
773.400, 0.197
773.500, 0.192
773.600, 0.209
773.700, 0.201
773.800, 0.187
773.900, 0.181
774.000, 0.167
774.100, 0.167
774.200, 0.174
774.300, 0.177
774.400, 0.180
774.500, 0.161
774.600, 0.185
774.700, 0.191
774.800, 0.196
774.900, 0.179
775.000, 0.176
775.100, 0.175
775.200, 0.173
775.300, 0.181
775.400, 0.180
775.500, 0.182
775.600, 0.174
775.700, 0.171
775.800, 0.171
775.900, 0.161
776.000, 0.166
776.100, 0.186
776.200, 0.183
776.300, 0.178
776.400, 0.192
776.500, 0.166
776.600, 0.198
776.700, 0.200
776.800, 0.208
776.900, 0.210
777.000, 0.183
777.100, 0.171
777.200, 0.186
777.300, 0.215
777.400, 0.219
777.500, 0.214
777.600, 0.199
777.700, 0.173
777.800, 0.188
777.900, 0.173
778.000, 0.189
778.100, 0.169
778.200, 0.197
778.300, 0.170
778.400, 0.217
778.500, 0.241
778.600, 0.195
778.700, 0.229
778.800, 0.182
778.900, 0.186
779.000, 0.246
779.100, 0.229
779.200, 0.261
779.300, 0.288
779.400, 0.278
779.500, 0.274
779.600, 0.282
779.700, 0.260
779.800, 0.252
779.900, 0.240
780.000, 0.193
780.100, 0.211
780.200, 0.169
780.300, 0.191
780.400, 0.199
780.500, 0.192
780.600, 0.202
780.700, 0.201
780.800, 0.197
780.900, 0.218
781.000, 0.189
781.100, 0.195
781.200, 0.175
781.300, 0.186
781.400, 0.194
781.500, 0.173
781.600, 0.196
781.700, 0.198
781.800, 0.194
781.900, 0.203
782.000, 0.218
782.100, 0.221
782.200, 0.206
782.300, 0.199
782.400, 0.208
782.500, 0.234
782.600, 0.206
782.700, 0.198
782.800, 0.225
782.900, 0.198
783.000, 0.183
783.100, 0.226
783.200, 0.199
783.300, 0.169
783.400, 0.193
783.500, 0.201
783.600, 0.205
783.700, 0.192
783.800, 0.152
783.900, 0.180
784.000, 0.211
784.100, 0.187
784.200, 0.200
784.300, 0.194
784.400, 0.174
784.500, 0.188
784.600, 0.189
784.700, 0.185
784.800, 0.192
784.900, 0.178
785.000, 0.198
785.100, 0.211
785.200, 0.204
785.300, 0.190
785.400, 0.226
785.500, 0.202
785.600, 0.217
785.700, 0.191
785.800, 0.186
785.900, 0.216
786.000, 0.198
786.100, 0.177
786.200, 0.182
786.300, 0.180
786.400, 0.167
786.500, 0.171
786.600, 0.187
786.700, 0.184
786.800, 0.193
786.900, 0.175
787.000, 0.206
787.100, 0.202
787.200, 0.193
787.300, 0.202
787.400, 0.198
787.500, 0.196
787.600, 0.190
787.700, 0.207
787.800, 0.198
787.900, 0.181
788.000, 0.179
788.100, 0.194
788.200, 0.189
788.300, 0.211
788.400, 0.214
788.500, 0.197
788.600, 0.225
788.700, 0.204
788.800, 0.189
788.900, 0.191
789.000, 0.189
789.100, 0.172
789.200, 0.192
789.300, 0.176
789.400, 0.178
789.500, 0.176
789.600, 0.164
789.700, 0.150
789.800, 0.179
789.900, 0.180
790.000, 0.178
790.100, 0.172
790.200, 0.186
790.300, 0.187
790.400, 0.202
790.500, 0.199
790.600, 0.205
790.700, 0.208
790.800, 0.195
790.900, 0.176
791.000, 0.204
791.100, 0.226
791.200, 0.208
791.300, 0.205
791.400, 0.188
791.500, 0.201
791.600, 0.185
791.700, 0.185
791.800, 0.203
791.900, 0.184
792.000, 0.176
792.100, 0.173
792.200, 0.192
792.300, 0.175
792.400, 0.199
792.500, 0.177
792.600, 0.183
792.700, 0.175
792.800, 0.193
792.900, 0.216
793.000, 0.234
793.100, 0.229
793.200, 0.208
793.300, 0.194
793.400, 0.187
793.500, 0.190
793.600, 0.187
793.700, 0.220
793.800, 0.191
793.900, 0.214
794.000, 0.202
794.100, 0.214
794.200, 0.184
794.300, 0.212
794.400, 0.206
794.500, 0.197
794.600, 0.211
794.700, 0.208
794.800, 0.225
794.900, 0.188
795.000, 0.176
795.100, 0.185
795.200, 0.177
795.300, 0.171
795.400, 0.184
795.500, 0.212
795.600, 0.203
795.700, 0.178
795.800, 0.197
795.900, 0.183
796.000, 0.181
796.100, 0.195
796.200, 0.191
796.300, 0.209
796.400, 0.191
796.500, 0.205
796.600, 0.196
796.700, 0.206
796.800, 0.196
796.900, 0.215
797.000, 0.176
797.100, 0.189
797.200, 0.184
797.300, 0.189
797.400, 0.175
797.500, 0.192
797.600, 0.186
797.700, 0.205
797.800, 0.198
797.900, 0.211
798.000, 0.205
798.100, 0.217
798.200, 0.226
798.300, 0.223
798.400, 0.204
798.500, 0.219
798.600, 0.220
798.700, 0.242
798.800, 0.193
798.900, 0.206
799.000, 0.203
799.100, 0.195
799.200, 0.181
799.300, 0.182
799.400, 0.205
799.500, 0.189
799.600, 0.211
799.700, 0.223
799.800, 0.209
799.900, 0.219
800.000, 0.203
800.100, 0.225
800.200, 0.222
800.300, 0.205
800.400, 0.193
800.500, 0.215
800.600, 0.202
800.700, 0.207
800.800, 0.183
800.900, 0.188
801.000, 0.186
801.100, 0.204
801.200, 0.219
801.300, 0.211
801.400, 0.213
801.500, 0.214
801.600, 0.209
801.700, 0.237
801.800, 0.222
801.900, 0.244
802.000, 0.251
802.100, 0.233
802.200, 0.243
802.300, 0.248
802.400, 0.213
802.500, 0.205
802.600, 0.214
802.700, 0.180
802.800, 0.203
802.900, 0.194
803.000, 0.161
803.100, 0.196
803.200, 0.163
803.300, 0.193
803.400, 0.192
803.500, 0.162
803.600, 0.181
803.700, 0.193
803.800, 0.185
803.900, 0.203
804.000, 0.184
804.100, 0.193
804.200, 0.187
804.300, 0.190
804.400, 0.194
804.500, 0.193
804.600, 0.196
804.700, 0.227
804.800, 0.180
804.900, 0.190
805.000, 0.190
805.100, 0.196
805.200, 0.230
805.300, 0.225
805.400, 0.210
805.500, 0.200
805.600, 0.232
805.700, 0.222
805.800, 0.205
805.900, 0.221
806.000, 0.206
806.100, 0.205
806.200, 0.206
806.300, 0.202
806.400, 0.193
806.500, 0.221
806.600, 0.212
806.700, 0.224
806.800, 0.229
806.900, 0.235
807.000, 0.226
807.100, 0.233
807.200, 0.211
807.300, 0.221
807.400, 0.233
807.500, 0.219
807.600, 0.207
807.700, 0.211
807.800, 0.218
807.900, 0.224
808.000, 0.213
808.100, 0.221
808.200, 0.204
808.300, 0.205
808.400, 0.192
808.500, 0.194
808.600, 0.218
808.700, 0.210
808.800, 0.206
808.900, 0.219
809.000, 0.209
809.100, 0.208
809.200, 0.201
809.300, 0.217
809.400, 0.213
809.500, 0.213
809.600, 0.227
809.700, 0.224
809.800, 0.185
809.900, 0.195
810.000, 0.194
810.100, 0.216
810.200, 0.200
810.300, 0.205
810.400, 0.225
810.500, 0.210
810.600, 0.221
810.700, 0.209
810.800, 0.223
810.900, 0.232
811.000, 0.225
811.100, 0.224
811.200, 0.218
811.300, 0.219
811.400, 0.213
811.500, 0.222
811.600, 0.194
811.700, 0.199
811.800, 0.190
811.900, 0.202
812.000, 0.213
812.100, 0.225
812.200, 0.212
812.300, 0.196
812.400, 0.175
812.500, 0.204
812.600, 0.208
812.700, 0.210
812.800, 0.209
812.900, 0.207
813.000, 0.204
813.100, 0.219
813.200, 0.226
813.300, 0.226
813.400, 0.218
813.500, 0.216
813.600, 0.230
813.700, 0.179
813.800, 0.228
813.900, 0.215
814.000, 0.204
814.100, 0.194
814.200, 0.203
814.300, 0.197
814.400, 0.247
814.500, 0.238
814.600, 0.222
814.700, 0.224
814.800, 0.224
814.900, 0.224
815.000, 0.225
815.100, 0.226
815.200, 0.201
815.300, 0.209
815.400, 0.195
815.500, 0.205
815.600, 0.205
815.700, 0.202
815.800, 0.221
815.900, 0.231
816.000, 0.202
816.100, 0.206
816.200, 0.189
816.300, 0.188
816.400, 0.207
816.500, 0.222
816.600, 0.211
816.700, 0.185
816.800, 0.215
816.900, 0.214
817.000, 0.212
817.100, 0.195
817.200, 0.224
817.300, 0.216
817.400, 0.235
817.500, 0.232
817.600, 0.208
817.700, 0.232
817.800, 0.213
817.900, 0.220
818.000, 0.214
818.100, 0.188
818.200, 0.196
818.300, 0.237
818.400, 0.222
818.500, 0.216
818.600, 0.209
818.700, 0.226
818.800, 0.213
818.900, 0.217
819.000, 0.216
819.100, 0.226
819.200, 0.243
819.300, 0.220
819.400, 0.185
819.500, 0.218
819.600, 0.203
819.700, 0.199
819.800, 0.231
819.900, 0.224
820.000, 0.225
820.100, 0.203
820.200, 0.220
820.300, 0.207
820.400, 0.205
820.500, 0.198
820.600, 0.199
820.700, 0.197
820.800, 0.183
820.900, 0.198
821.000, 0.161
821.100, 0.178
821.200, 0.181
821.300, 0.164
821.400, 0.197
821.500, 0.175
821.600, 0.190
821.700, 0.185
821.800, 0.209
821.900, 0.195
822.000, 0.195
822.100, 0.179
822.200, 0.200
822.300, 0.186
822.400, 0.200
822.500, 0.223
822.600, 0.176
822.700, 0.181
822.800, 0.214
822.900, 0.244
823.000, 0.227
823.100, 0.210
823.200, 0.181
823.300, 0.189
823.400, 0.190
823.500, 0.197
823.600, 0.203
823.700, 0.203
823.800, 0.181
823.900, 0.173
824.000, 0.170
824.100, 0.168
824.200, 0.205
824.300, 0.191
824.400, 0.183
824.500, 0.187
824.600, 0.188
824.700, 0.182
824.800, 0.196
824.900, 0.192
825.000, 0.209
825.100, 0.206
825.200, 0.201
825.300, 0.196
825.400, 0.187
825.500, 0.184
825.600, 0.204
825.700, 0.194
825.800, 0.196
825.900, 0.207
826.000, 0.234
826.100, 0.201
826.200, 0.206
826.300, 0.222
826.400, 0.212
826.500, 0.230
826.600, 0.239
826.700, 0.212
826.800, 0.204
826.900, 0.208
827.000, 0.216
827.100, 0.192
827.200, 0.213
827.300, 0.213
827.400, 0.219
827.500, 0.227
827.600, 0.217
827.700, 0.217
827.800, 0.207
827.900, 0.217
828.000, 0.217
828.100, 0.214
828.200, 0.212
828.300, 0.199
828.400, 0.209
828.500, 0.201
828.600, 0.195
828.700, 0.229
828.800, 0.201
828.900, 0.222
829.000, 0.208
829.100, 0.222
829.200, 0.202
829.300, 0.205
829.400, 0.197
829.500, 0.188
829.600, 0.214
829.700, 0.221
829.800, 0.204
829.900, 0.208
830.000, 0.204
830.100, 0.208
830.200, 0.217
830.300, 0.211
830.400, 0.211
830.500, 0.222
830.600, 0.227
830.700, 0.207
830.800, 0.215
830.900, 0.220
831.000, 0.200
831.100, 0.181
831.200, 0.214
831.300, 0.224
831.400, 0.219
831.500, 0.229
831.600, 0.199
831.700, 0.213
831.800, 0.224
831.900, 0.205
832.000, 0.212
832.100, 0.214
832.200, 0.182
832.300, 0.197
832.400, 0.206
832.500, 0.225
832.600, 0.203
832.700, 0.189
832.800, 0.206
832.900, 0.216
833.000, 0.221
833.100, 0.211
833.200, 0.210
833.300, 0.214
833.400, 0.209
833.500, 0.220
833.600, 0.205
833.700, 0.218
833.800, 0.210
833.900, 0.203
834.000, 0.224
834.100, 0.237
834.200, 0.210
834.300, 0.212
834.400, 0.230
834.500, 0.212
834.600, 0.176
834.700, 0.201
834.800, 0.174
834.900, 0.177
835.000, 0.199
835.100, 0.177
835.200, 0.181
835.300, 0.206
835.400, 0.186
835.500, 0.202
835.600, 0.224
835.700, 0.226
835.800, 0.246
835.900, 0.230
836.000, 0.243
836.100, 0.236
836.200, 0.246
836.300, 0.248
836.400, 0.250
836.500, 0.262
836.600, 0.251
836.700, 0.253
836.800, 0.227
836.900, 0.263
837.000, 0.248
837.100, 0.236
837.200, 0.252
837.300, 0.220
837.400, 0.244
837.500, 0.204
837.600, 0.208
837.700, 0.226
837.800, 0.238
837.900, 0.227
838.000, 0.191
838.100, 0.192
838.200, 0.210
838.300, 0.185
838.400, 0.193
838.500, 0.217
838.600, 0.222
838.700, 0.222
838.800, 0.198
838.900, 0.200
839.000, 0.217
839.100, 0.221
839.200, 0.238
839.300, 0.208
839.400, 0.213
839.500, 0.249
839.600, 0.235
839.700, 0.215
839.800, 0.219
839.900, 0.239
840.000, 0.235
840.100, 0.237
840.200, 0.241
840.300, 0.223
840.400, 0.202
840.500, 0.215
840.600, 0.208
840.700, 0.194
840.800, 0.230
840.900, 0.204
841.000, 0.197
841.100, 0.218
841.200, 0.202
841.300, 0.182
841.400, 0.183
841.500, 0.180
841.600, 0.185
841.700, 0.181
841.800, 0.197
841.900, 0.219
842.000, 0.210
842.100, 0.192
842.200, 0.187
842.300, 0.195
842.400, 0.202
842.500, 0.203
842.600, 0.235
842.700, 0.241
842.800, 0.245
842.900, 0.234
843.000, 0.229
843.100, 0.218
843.200, 0.263
843.300, 0.237
843.400, 0.257
843.500, 0.253
843.600, 0.240
843.700, 0.219
843.800, 0.236
843.900, 0.233
844.000, 0.214
844.100, 0.225
844.200, 0.243
844.300, 0.209
844.400, 0.220
844.500, 0.189
844.600, 0.186
844.700, 0.189
844.800, 0.199
844.900, 0.197
845.000, 0.207
845.100, 0.196
845.200, 0.198
845.300, 0.194
845.400, 0.223
845.500, 0.198
845.600, 0.204
845.700, 0.211
845.800, 0.204
845.900, 0.208
846.000, 0.217
846.100, 0.200
846.200, 0.212
846.300, 0.196
846.400, 0.202
846.500, 0.219
846.600, 0.205
846.700, 0.201
846.800, 0.220
846.900, 0.216
847.000, 0.199
847.100, 0.226
847.200, 0.206
847.300, 0.204
847.400, 0.223
847.500, 0.216
847.600, 0.203
847.700, 0.222
847.800, 0.207
847.900, 0.202
848.000, 0.209
848.100, 0.202
848.200, 0.222
848.300, 0.218
848.400, 0.218
848.500, 0.220
848.600, 0.238
848.700, 0.224
848.800, 0.220
848.900, 0.208
849.000, 0.211
849.100, 0.216
849.200, 0.212
849.300, 0.217
849.400, 0.228
849.500, 0.221
849.600, 0.225
849.700, 0.212
849.800, 0.197
849.900, 0.210
850.000, 0.207
850.100, 0.212
850.200, 0.206
850.300, 0.188
850.400, 0.183
850.500, 0.193
850.600, 0.196
850.700, 0.174
850.800, 0.174
850.900, 0.189
851.000, 0.191
851.100, 0.200
851.200, 0.186
851.300, 0.209
851.400, 0.235
851.500, 0.210
851.600, 0.239
851.700, 0.232
851.800, 0.235
851.900, 0.226
852.000, 0.216
852.100, 0.226
852.200, 0.220
852.300, 0.225
852.400, 0.215
852.500, 0.214
852.600, 0.220
852.700, 0.192
852.800, 0.207
852.900, 0.206
853.000, 0.204
853.100, 0.203
853.200, 0.224
853.300, 0.225
853.400, 0.221
853.500, 0.232
853.600, 0.243
853.700, 0.239
853.800, 0.238
853.900, 0.220
854.000, 0.224
854.100, 0.205
854.200, 0.219
854.300, 0.206
854.400, 0.210
854.500, 0.225
854.600, 0.217
854.700, 0.210
854.800, 0.200
854.900, 0.232
855.000, 0.221
855.100, 0.204
855.200, 0.231
855.300, 0.219
855.400, 0.211
855.500, 0.202
855.600, 0.213
855.700, 0.204
855.800, 0.201
855.900, 0.221
856.000, 0.206
856.100, 0.220
856.200, 0.214
856.300, 0.219
856.400, 0.210
856.500, 0.226
856.600, 0.224
856.700, 0.241
856.800, 0.244
856.900, 0.228
857.000, 0.224
857.100, 0.219
857.200, 0.230
857.300, 0.235
857.400, 0.228
857.500, 0.217
857.600, 0.227
857.700, 0.215
857.800, 0.220
857.900, 0.212
858.000, 0.207
858.100, 0.237
858.200, 0.215
858.300, 0.228
858.400, 0.249
858.500, 0.246
858.600, 0.233
858.700, 0.235
858.800, 0.228
858.900, 0.241
859.000, 0.237
859.100, 0.231
859.200, 0.193
859.300, 0.185
859.400, 0.216
859.500, 0.200
859.600, 0.203
859.700, 0.193
859.800, 0.222
859.900, 0.205
860.000, 0.207
860.100, 0.220
860.200, 0.243
860.300, 0.234
860.400, 0.238
860.500, 0.235
860.600, 0.221
860.700, 0.244
860.800, 0.224
860.900, 0.218
861.000, 0.239
861.100, 0.225
861.200, 0.225
861.300, 0.246
861.400, 0.249
861.500, 0.283
861.600, 0.268
861.700, 0.278
861.800, 0.260
861.900, 0.240
862.000, 0.258
862.100, 0.253
862.200, 0.243
862.300, 0.248
862.400, 0.242
862.500, 0.240
862.600, 0.202
862.700, 0.222
862.800, 0.220
862.900, 0.212
863.000, 0.244
863.100, 0.222
863.200, 0.224
863.300, 0.212
863.400, 0.225
863.500, 0.214
863.600, 0.199
863.700, 0.219
863.800, 0.226
863.900, 0.229
864.000, 0.213
864.100, 0.206
864.200, 0.227
864.300, 0.208
864.400, 0.203
864.500, 0.221
864.600, 0.230
864.700, 0.198
864.800, 0.230
864.900, 0.221
865.000, 0.214
865.100, 0.215
865.200, 0.209
865.300, 0.205
865.400, 0.187
865.500, 0.202
865.600, 0.226
865.700, 0.217
865.800, 0.194
865.900, 0.193
866.000, 0.236
866.100, 0.218
866.200, 0.239
866.300, 0.235
866.400, 0.227
866.500, 0.194
866.600, 0.222
866.700, 0.195
866.800, 0.208
866.900, 0.192
867.000, 0.188
867.100, 0.196
867.200, 0.196
867.300, 0.214
867.400, 0.186
867.500, 0.209
867.600, 0.226
867.700, 0.242
867.800, 0.241
867.900, 0.212
868.000, 0.207
868.100, 0.189
868.200, 0.194
868.300, 0.170
868.400, 0.198
868.500, 0.203
868.600, 0.182
868.700, 0.212
868.800, 0.231
868.900, 0.222
869.000, 0.200
869.100, 0.192
869.200, 0.191
869.300, 0.192
869.400, 0.191
869.500, 0.173
869.600, 0.178
869.700, 0.180
869.800, 0.199
869.900, 0.199
870.000, 0.197
870.100, 0.204
870.200, 0.179
870.300, 0.197
870.400, 0.200
870.500, 0.174
870.600, 0.199
870.700, 0.197
870.800, 0.201
870.900, 0.193
871.000, 0.204
871.100, 0.221
871.200, 0.199
871.300, 0.229
871.400, 0.219
871.500, 0.196
871.600, 0.212
871.700, 0.219
871.800, 0.219
871.900, 0.233
872.000, 0.208
872.100, 0.176
872.200, 0.197
872.300, 0.200
872.400, 0.177
872.500, 0.182
872.600, 0.196
872.700, 0.218
872.800, 0.193
872.900, 0.223
873.000, 0.240
873.100, 0.208
873.200, 0.231
873.300, 0.220
873.400, 0.236
873.500, 0.215
873.600, 0.214
873.700, 0.200
873.800, 0.209
873.900, 0.221
874.000, 0.195
874.100, 0.202
874.200, 0.211
874.300, 0.207
874.400, 0.213
874.500, 0.211
874.600, 0.208
874.700, 0.212
874.800, 0.219
874.900, 0.212
875.000, 0.222
875.100, 0.220
875.200, 0.213
875.300, 0.219
875.400, 0.215
875.500, 0.205
875.600, 0.239
875.700, 0.208
875.800, 0.207
875.900, 0.194
876.000, 0.228
876.100, 0.220
876.200, 0.212
876.300, 0.182
876.400, 0.182
876.500, 0.167
876.600, 0.181
876.700, 0.196
876.800, 0.216
876.900, 0.207
877.000, 0.203
877.100, 0.207
877.200, 0.209
877.300, 0.206
877.400, 0.188
877.500, 0.175
877.600, 0.195
877.700, 0.169
877.800, 0.159
877.900, 0.209
878.000, 0.201
878.100, 0.191
878.200, 0.172
878.300, 0.195
878.400, 0.192
878.500, 0.194
878.600, 0.217
878.700, 0.200
878.800, 0.174
878.900, 0.185
879.000, 0.186
879.100, 0.186
879.200, 0.219
879.300, 0.168
879.400, 0.174
879.500, 0.168
879.600, 0.173
879.700, 0.193
879.800, 0.193
879.900, 0.204
880.000, 0.196
880.100, 0.205
880.200, 0.168
880.300, 0.195
880.400, 0.181
880.500, 0.164
880.600, 0.167
880.700, 0.175
880.800, 0.172
880.900, 0.141
881.000, 0.196
881.100, 0.172
881.200, 0.186
881.300, 0.216
881.400, 0.207
881.500, 0.198
881.600, 0.209
881.700, 0.206
881.800, 0.183
881.900, 0.174
882.000, 0.179
882.100, 0.178
882.200, 0.181
882.300, 0.206
882.400, 0.226
882.500, 0.218
882.600, 0.216
882.700, 0.231
882.800, 0.239
882.900, 0.223
883.000, 0.207
883.100, 0.215
883.200, 0.226
883.300, 0.216
883.400, 0.253
883.500, 0.203
883.600, 0.216
883.700, 0.214
883.800, 0.247
883.900, 0.214
884.000, 0.214
884.100, 0.234
884.200, 0.210
884.300, 0.202
884.400, 0.176
884.500, 0.175
884.600, 0.194
884.700, 0.186
884.800, 0.194
884.900, 0.206
885.000, 0.225
885.100, 0.200
885.200, 0.214
885.300, 0.240
885.400, 0.229
885.500, 0.240
885.600, 0.219
885.700, 0.226
885.800, 0.218
885.900, 0.231
886.000, 0.207
886.100, 0.219
886.200, 0.209
886.300, 0.218
886.400, 0.223
886.500, 0.192
886.600, 0.189
886.700, 0.157
886.800, 0.186
886.900, 0.186
887.000, 0.187
887.100, 0.190
887.200, 0.219
887.300, 0.207
887.400, 0.213
887.500, 0.198
887.600, 0.206
887.700, 0.200
887.800, 0.205
887.900, 0.223
888.000, 0.233
888.100, 0.220
888.200, 0.194
888.300, 0.224
888.400, 0.216
888.500, 0.221
888.600, 0.227
888.700, 0.233
888.800, 0.208
888.900, 0.200
889.000, 0.220
889.100, 0.233
889.200, 0.184
889.300, 0.209
889.400, 0.232
889.500, 0.207
889.600, 0.212
889.700, 0.207
889.800, 0.222
889.900, 0.197
890.000, 0.209
890.100, 0.201
890.200, 0.244
890.300, 0.208
890.400, 0.234
890.500, 0.232
890.600, 0.226
890.700, 0.238
890.800, 0.234
890.900, 0.227
891.000, 0.191
891.100, 0.193
891.200, 0.194
891.300, 0.222
891.400, 0.208
891.500, 0.216
891.600, 0.235
891.700, 0.234
891.800, 0.256
891.900, 0.249
892.000, 0.255
892.100, 0.252
892.200, 0.247
892.300, 0.247
892.400, 0.261
892.500, 0.268
892.600, 0.226
892.700, 0.259
892.800, 0.233
892.900, 0.223
893.000, 0.194
893.100, 0.225
893.200, 0.233
893.300, 0.218
893.400, 0.247
893.500, 0.217
893.600, 0.248
893.700, 0.233
893.800, 0.231
893.900, 0.227
894.000, 0.220
894.100, 0.249
894.200, 0.228
894.300, 0.221
894.400, 0.228
894.500, 0.233
894.600, 0.234
894.700, 0.202
894.800, 0.197
894.900, 0.229
895.000, 0.246
895.100, 0.238
895.200, 0.222
895.300, 0.206
895.400, 0.188
895.500, 0.199
895.600, 0.227
895.700, 0.237
895.800, 0.208
895.900, 0.237
896.000, 0.246
896.100, 0.261
896.200, 0.246
896.300, 0.262
896.400, 0.238
896.500, 0.226
896.600, 0.190
896.700, 0.205
896.800, 0.216
896.900, 0.244
897.000, 0.232
897.100, 0.227
897.200, 0.231
897.300, 0.238
897.400, 0.247
897.500, 0.243
897.600, 0.233
897.700, 0.226
897.800, 0.258
897.900, 0.219
898.000, 0.241
898.100, 0.234
898.200, 0.225
898.300, 0.230
898.400, 0.257
898.500, 0.249
898.600, 0.252
898.700, 0.256
898.800, 0.233
898.900, 0.249
899.000, 0.227
899.100, 0.224
899.200, 0.229
899.300, 0.238
899.400, 0.223
899.500, 0.249
899.600, 0.257
899.700, 0.253
899.800, 0.230
899.900, 0.231
900.000, 0.229
900.100, 0.218
900.200, 0.252
900.300, 0.250
900.400, 0.240
900.500, 0.246
900.600, 0.267
900.700, 0.251
900.800, 0.229
900.900, 0.240
901.000, 0.229
901.100, 0.236
901.200, 0.226
901.300, 0.224
901.400, 0.222
901.500, 0.223
901.600, 0.239
901.700, 0.252
901.800, 0.242
901.900, 0.253
902.000, 0.249
902.100, 0.238
902.200, 0.244
902.300, 0.195
902.400, 0.212
902.500, 0.192
902.600, 0.228
902.700, 0.244
902.800, 0.241
902.900, 0.241
903.000, 0.210
903.100, 0.217
903.200, 0.213
903.300, 0.229
903.400, 0.233
903.500, 0.231
903.600, 0.220
903.700, 0.238
903.800, 0.228
903.900, 0.235
904.000, 0.248
904.100, 0.207
904.200, 0.191
904.300, 0.206
904.400, 0.220
904.500, 0.224
904.600, 0.224
904.700, 0.249
904.800, 0.248
904.900, 0.235
905.000, 0.236
905.100, 0.244
905.200, 0.219
905.300, 0.201
905.400, 0.218
905.500, 0.227
905.600, 0.227
905.700, 0.222
905.800, 0.213
905.900, 0.239
906.000, 0.235
906.100, 0.252
906.200, 0.252
906.300, 0.207
906.400, 0.234
906.500, 0.231
906.600, 0.205
906.700, 0.220
906.800, 0.222
906.900, 0.235
907.000, 0.232
907.100, 0.255
907.200, 0.234
907.300, 0.230
907.400, 0.238
907.500, 0.222
907.600, 0.247
907.700, 0.238
907.800, 0.229
907.900, 0.233
908.000, 0.222
908.100, 0.217
908.200, 0.241
908.300, 0.223
908.400, 0.235
908.500, 0.215
908.600, 0.199
908.700, 0.204
908.800, 0.190
908.900, 0.215
909.000, 0.206
909.100, 0.205
909.200, 0.218
909.300, 0.208
909.400, 0.188
909.500, 0.202
909.600, 0.231
909.700, 0.201
909.800, 0.225
909.900, 0.201
910.000, 0.216
910.100, 0.218
910.200, 0.188
910.300, 0.210
910.400, 0.183
910.500, 0.172
910.600, 0.188
910.700, 0.175
910.800, 0.177
910.900, 0.171
911.000, 0.166
911.100, 0.189
911.200, 0.201
911.300, 0.202
911.400, 0.221
911.500, 0.222
911.600, 0.167
911.700, 0.215
911.800, 0.196
911.900, 0.181
912.000, 0.192
912.100, 0.200
912.200, 0.175
912.300, 0.194
912.400, 0.185
912.500, 0.173
912.600, 0.187
912.700, 0.185
912.800, 0.186
912.900, 0.205
913.000, 0.193
913.100, 0.183
913.200, 0.192
913.300, 0.206
913.400, 0.200
913.500, 0.196
913.600, 0.231
913.700, 0.219
913.800, 0.206
913.900, 0.217
914.000, 0.216
914.100, 0.220
914.200, 0.231
914.300, 0.223
914.400, 0.229
914.500, 0.216
914.600, 0.207
914.700, 0.204
914.800, 0.197
914.900, 0.212
915.000, 0.217
915.100, 0.223
915.200, 0.198
915.300, 0.250
915.400, 0.249
915.500, 0.245
915.600, 0.243
915.700, 0.234
915.800, 0.219
915.900, 0.244
916.000, 0.189
916.100, 0.211
916.200, 0.201
916.300, 0.233
916.400, 0.204
916.500, 0.240
916.600, 0.224
916.700, 0.242
916.800, 0.238
916.900, 0.233
917.000, 0.238
917.100, 0.234
917.200, 0.243
917.300, 0.238
917.400, 0.217
917.500, 0.232
917.600, 0.232
917.700, 0.233
917.800, 0.218
917.900, 0.239
918.000, 0.241
918.100, 0.243
918.200, 0.241
918.300, 0.250
918.400, 0.268
918.500, 0.235
918.600, 0.230
918.700, 0.238
918.800, 0.249
918.900, 0.253
919.000, 0.232
919.100, 0.248
919.200, 0.215
919.300, 0.214
919.400, 0.222
919.500, 0.212
919.600, 0.215
919.700, 0.234
919.800, 0.224
919.900, 0.238
920.000, 0.225
920.100, 0.232
920.200, 0.248
920.300, 0.242
920.400, 0.217
920.500, 0.213
920.600, 0.207
920.700, 0.203
920.800, 0.198
920.900, 0.234
921.000, 0.207
921.100, 0.202
921.200, 0.214
921.300, 0.232
921.400, 0.220
921.500, 0.201
921.600, 0.207
921.700, 0.212
921.800, 0.203
921.900, 0.220
922.000, 0.207
922.100, 0.198
922.200, 0.191
922.300, 0.204
922.400, 0.221
922.500, 0.239
922.600, 0.237
922.700, 0.227
922.800, 0.218
922.900, 0.219
923.000, 0.210
923.100, 0.228
923.200, 0.193
923.300, 0.221
923.400, 0.214
923.500, 0.200
923.600, 0.219
923.700, 0.220
923.800, 0.209
923.900, 0.221
924.000, 0.218
924.100, 0.209
924.200, 0.244
924.300, 0.241
924.400, 0.236
924.500, 0.248
924.600, 0.253
924.700, 0.234
924.800, 0.245
924.900, 0.223
925.000, 0.238
925.100, 0.241
925.200, 0.233
925.300, 0.234
925.400, 0.249
925.500, 0.248
925.600, 0.245
925.700, 0.221
925.800, 0.243
925.900, 0.271
926.000, 0.253
926.100, 0.228
926.200, 0.263
926.300, 0.255
926.400, 0.232
926.500, 0.257
926.600, 0.246
926.700, 0.241
926.800, 0.246
926.900, 0.232
927.000, 0.237
927.100, 0.226
927.200, 0.246
927.300, 0.250
927.400, 0.240
927.500, 0.236
927.600, 0.226
927.700, 0.231
927.800, 0.244
927.900, 0.217
928.000, 0.188
928.100, 0.217
928.200, 0.232
928.300, 0.217
928.400, 0.246
928.500, 0.231
928.600, 0.223
928.700, 0.214
928.800, 0.205
928.900, 0.218
929.000, 0.203
929.100, 0.200
929.200, 0.176
929.300, 0.241
929.400, 0.225
929.500, 0.249
929.600, 0.228
929.700, 0.232
929.800, 0.255
929.900, 0.255
930.000, 0.240
930.100, 0.247
930.200, 0.221
930.300, 0.247
930.400, 0.246
930.500, 0.268
930.600, 0.252
930.700, 0.260
930.800, 0.246
930.900, 0.260
931.000, 0.231
931.100, 0.259
931.200, 0.210
931.300, 0.213
931.400, 0.246
931.500, 0.236
931.600, 0.225
931.700, 0.225
931.800, 0.225
931.900, 0.210
932.000, 0.244
932.100, 0.231
932.200, 0.222
932.300, 0.219
932.400, 0.243
932.500, 0.218
932.600, 0.232
932.700, 0.219
932.800, 0.234
932.900, 0.241
933.000, 0.220
933.100, 0.228
933.200, 0.241
933.300, 0.218
933.400, 0.230
933.500, 0.204
933.600, 0.196
933.700, 0.209
933.800, 0.204
933.900, 0.231
934.000, 0.261
934.100, 0.276
934.200, 0.233
934.300, 0.225
934.400, 0.191
934.500, 0.191
934.600, 0.202
934.700, 0.232
934.800, 0.212
934.900, 0.224
935.000, 0.239
935.100, 0.221
935.200, 0.205
935.300, 0.220
935.400, 0.223
935.500, 0.228
935.600, 0.223
935.700, 0.219
935.800, 0.226
935.900, 0.230
936.000, 0.208
936.100, 0.188
936.200, 0.222
936.300, 0.209
936.400, 0.219
936.500, 0.222
936.600, 0.220
936.700, 0.219
936.800, 0.229
936.900, 0.232
937.000, 0.221
937.100, 0.232
937.200, 0.208
937.300, 0.206
937.400, 0.186
937.500, 0.220
937.600, 0.200
937.700, 0.217
937.800, 0.214
937.900, 0.220
938.000, 0.219
938.100, 0.213
938.200, 0.188
938.300, 0.252
938.400, 0.239
938.500, 0.244
938.600, 0.221
938.700, 0.216
938.800, 0.205
938.900, 0.195
939.000, 0.187
939.100, 0.196
939.200, 0.203
939.300, 0.191
939.400, 0.198
939.500, 0.209
939.600, 0.182
939.700, 0.224
939.800, 0.227
939.900, 0.217
940.000, 0.205
940.100, 0.187
940.200, 0.230
940.300, 0.193
940.400, 0.185
940.500, 0.196
940.600, 0.181
940.700, 0.205
940.800, 0.205
940.900, 0.206
941.000, 0.230
941.100, 0.229
941.200, 0.220
941.300, 0.206
941.400, 0.215
941.500, 0.215
941.600, 0.196
941.700, 0.174
941.800, 0.171
941.900, 0.179
942.000, 0.174
942.100, 0.201
942.200, 0.194
942.300, 0.193
942.400, 0.195
942.500, 0.196
942.600, 0.183
942.700, 0.163
942.800, 0.188
942.900, 0.189
943.000, 0.178
943.100, 0.197
943.200, 0.190
943.300, 0.189
943.400, 0.212
943.500, 0.208
943.600, 0.185
943.700, 0.204
943.800, 0.190
943.900, 0.191
944.000, 0.209
944.100, 0.205
944.200, 0.199
944.300, 0.191
944.400, 0.167
944.500, 0.165
944.600, 0.186
944.700, 0.188
944.800, 0.192
944.900, 0.212
945.000, 0.201
945.100, 0.233
945.200, 0.191
945.300, 0.175
945.400, 0.187
945.500, 0.181
945.600, 0.179
945.700, 0.163
945.800, 0.165
945.900, 0.177
946.000, 0.188
946.100, 0.168
946.200, 0.172
946.300, 0.177
946.400, 0.154
946.500, 0.179
946.600, 0.158
946.700, 0.215
946.800, 0.192
946.900, 0.181
947.000, 0.160
947.100, 0.141
947.200, 0.153
947.300, 0.127
947.400, 0.135
947.500, 0.145
947.600, 0.141
947.700, 0.154
947.800, 0.146
947.900, 0.135
948.000, 0.176
948.100, 0.192
948.200, 0.174
948.300, 0.181
948.400, 0.178
948.500, 0.177
948.600, 0.176
948.700, 0.165
948.800, 0.175
948.900, 0.177
949.000, 0.156
949.100, 0.147
949.200, 0.159
949.300, 0.172
949.400, 0.183
949.500, 0.181
949.600, 0.170
949.700, 0.162
949.800, 0.166
949.900, 0.181
950.000, 0.193
950.100, 0.188
950.200, 0.199
950.300, 0.164
950.400, 0.179
950.500, 0.171
950.600, 0.186
950.700, 0.164
950.800, 0.169
950.900, 0.168
951.000, 0.168
951.100, 0.165
951.200, 0.157
951.300, 0.185
951.400, 0.171
951.500, 0.166
951.600, 0.151
951.700, 0.198
951.800, 0.166
951.900, 0.185
952.000, 0.170
952.100, 0.185
952.200, 0.171
952.300, 0.165
952.400, 0.157
952.500, 0.146
952.600, 0.132
952.700, 0.154
952.800, 0.159
952.900, 0.166
953.000, 0.141
953.100, 0.143
953.200, 0.131
953.300, 0.155
953.400, 0.142
953.500, 0.168
953.600, 0.150
953.700, 0.147
953.800, 0.142
953.900, 0.153
954.000, 0.133
954.100, 0.123
954.200, 0.130
954.300, 0.129
954.400, 0.124
954.500, 0.108
954.600, 0.131
954.700, 0.158
954.800, 0.139
954.900, 0.138
955.000, 0.124
955.100, 0.105
955.200, 0.110
955.300, 0.094
955.400, 0.122
955.500, 0.120
955.600, 0.117
955.700, 0.124
955.800, 0.107
955.900, 0.092
956.000, 0.128
956.100, 0.140
956.200, 0.144
956.300, 0.116
956.400, 0.124
956.500, 0.110
956.600, 0.104
956.700, 0.124
956.800, 0.111
956.900, 0.117
957.000, 0.147
957.100, 0.129
957.200, 0.134
957.300, 0.134
957.400, 0.145
957.500, 0.122
957.600, 0.142
957.700, 0.167
957.800, 0.156
957.900, 0.174
958.000, 0.169
958.100, 0.130
958.200, 0.130
958.300, 0.111
958.400, 0.154
958.500, 0.162
958.600, 0.119
958.700, 0.101
958.800, 0.132
958.900, 0.112
959.000, 0.119
959.100, 0.120
959.200, 0.103
959.300, 0.097
959.400, 0.094
959.500, 0.119
959.600, 0.130
959.700, 0.101
959.800, 0.113
959.900, 0.139
960.000, 0.115
960.100, 0.125
960.200, 0.111
960.300, 0.103
960.400, 0.149
960.500, 0.140
960.600, 0.132
960.700, 0.139
960.800, 0.145
960.900, 0.136
961.000, 0.144
961.100, 0.139
961.200, 0.127
961.300, 0.127
961.400, 0.115
961.500, 0.125
961.600, 0.137
961.700, 0.123
961.800, 0.149
961.900, 0.155
962.000, 0.142
962.100, 0.153
962.200, 0.152
962.300, 0.136
962.400, 0.161
962.500, 0.172
962.600, 0.144
962.700, 0.150
962.800, 0.147
962.900, 0.152
963.000, 0.132
963.100, 0.148
963.200, 0.162
963.300, 0.180
963.400, 0.191
963.500, 0.188
963.600, 0.149
963.700, 0.161
963.800, 0.163
963.900, 0.156
964.000, 0.152
964.100, 0.164
964.200, 0.148
964.300, 0.152
964.400, 0.158
964.500, 0.150
964.600, 0.137
964.700, 0.122
964.800, 0.143
964.900, 0.148
965.000, 0.168
965.100, 0.150
965.200, 0.136
965.300, 0.153
965.400, 0.153
965.500, 0.158
965.600, 0.139
965.700, 0.151
965.800, 0.159
965.900, 0.184
966.000, 0.165
966.100, 0.142
966.200, 0.150
966.300, 0.139
966.400, 0.162
966.500, 0.147
966.600, 0.132
966.700, 0.141
966.800, 0.137
966.900, 0.136
967.000, 0.156
967.100, 0.155
967.200, 0.141
967.300, 0.146
967.400, 0.167
967.500, 0.139
967.600, 0.177
967.700, 0.155
967.800, 0.131
967.900, 0.132
968.000, 0.145
968.100, 0.122
968.200, 0.172
968.300, 0.148
968.400, 0.140
968.500, 0.148
968.600, 0.153
968.700, 0.147
968.800, 0.156
968.900, 0.163
969.000, 0.163
969.100, 0.156
969.200, 0.142
969.300, 0.147
969.400, 0.124
969.500, 0.119
969.600, 0.132
969.700, 0.149
969.800, 0.162
969.900, 0.150
970.000, 0.126
970.100, 0.135
970.200, 0.168
970.300, 0.163
970.400, 0.150
970.500, 0.134
970.600, 0.140
970.700, 0.149
970.800, 0.140
970.900, 0.131
971.000, 0.138
971.100, 0.135
971.200, 0.165
971.300, 0.158
971.400, 0.141
971.500, 0.155
971.600, 0.145
971.700, 0.132
971.800, 0.166
971.900, 0.159
972.000, 0.131
972.100, 0.162
972.200, 0.190
972.300, 0.166
972.400, 0.153
972.500, 0.183
972.600, 0.175
972.700, 0.188
972.800, 0.215
972.900, 0.237
973.000, 0.240
973.100, 0.246
973.200, 0.199
973.300, 0.304
973.400, 0.222
973.500, 0.230
973.600, 0.177
973.700, 0.183
973.800, 0.179
973.900, 0.172
974.000, 0.210
974.100, 0.222
974.200, 0.214
974.300, 0.245
974.400, 0.217
974.500, 0.224
974.600, 0.232
974.700, 0.210
974.800, 0.196
974.900, 0.211
975.000, 0.225
975.100, 0.207
975.200, 0.197
975.300, 0.194
975.400, 0.206
975.500, 0.193
975.600, 0.207
975.700, 0.174
975.800, 0.187
975.900, 0.182
976.000, 0.186
976.100, 0.184
976.200, 0.161
976.300, 0.180
976.400, 0.178
976.500, 0.197
976.600, 0.198
976.700, 0.203
976.800, 0.222
976.900, 0.195
977.000, 0.212
977.100, 0.216
977.200, 0.202
977.300, 0.213
977.400, 0.194
977.500, 0.229
977.600, 0.230
977.700, 0.208
977.800, 0.205
977.900, 0.183
978.000, 0.235
978.100, 0.231
978.200, 0.228
978.300, 0.228
978.400, 0.217
978.500, 0.249
978.600, 0.241
978.700, 0.217
978.800, 0.209
978.900, 0.240
979.000, 0.207
979.100, 0.161
979.200, 0.165
979.300, 0.147
979.400, 0.168
979.500, 0.153
979.600, 0.156
979.700, 0.141
979.800, 0.168
979.900, 0.210
980.000, 0.199
980.100, 0.174
980.200, 0.184
980.300, 0.184
980.400, 0.197
980.500, 0.202
980.600, 0.197
980.700, 0.196
980.800, 0.186
980.900, 0.248
981.000, 0.221
981.100, 0.215
981.200, 0.213
981.300, 0.202
981.400, 0.215
981.500, 0.206
981.600, 0.198
981.700, 0.209
981.800, 0.191
981.900, 0.211
982.000, 0.228
982.100, 0.226
982.200, 0.227
982.300, 0.225
982.400, 0.209
982.500, 0.198
982.600, 0.186
982.700, 0.194
982.800, 0.203
982.900, 0.181
983.000, 0.212
983.100, 0.217
983.200, 0.194
983.300, 0.222
983.400, 0.203
983.500, 0.176
983.600, 0.191
983.700, 0.176
983.800, 0.194
983.900, 0.169
984.000, 0.191
984.100, 0.177
984.200, 0.180
984.300, 0.128
984.400, 0.156
984.500, 0.158
984.600, 0.156
984.700, 0.186
984.800, 0.191
984.900, 0.163
985.000, 0.183
985.100, 0.182
985.200, 0.160
985.300, 0.137
985.400, 0.169
985.500, 0.174
985.600, 0.170
985.700, 0.147
985.800, 0.129
985.900, 0.182
986.000, 0.150
986.100, 0.142
986.200, 0.134
986.300, 0.141
986.400, 0.140
986.500, 0.135
986.600, 0.130
986.700, 0.111
986.800, 0.125
986.900, 0.154
987.000, 0.165
987.100, 0.175
987.200, 0.162
987.300, 0.148
987.400, 0.170
987.500, 0.210
987.600, 0.194
987.700, 0.207
987.800, 0.167
987.900, 0.178
988.000, 0.145
988.100, 0.170
988.200, 0.163
988.300, 0.160
988.400, 0.185
988.500, 0.177
988.600, 0.182
988.700, 0.188
988.800, 0.162
988.900, 0.147
989.000, 0.142
989.100, 0.156
989.200, 0.148
989.300, 0.165
989.400, 0.155
989.500, 0.155
989.600, 0.189
989.700, 0.159
989.800, 0.199
989.900, 0.186
990.000, 0.181
990.100, 0.154
990.200, 0.158
990.300, 0.183
990.400, 0.147
990.500, 0.153
990.600, 0.187
990.700, 0.134
990.800, 0.149
990.900, 0.149
991.000, 0.185
991.100, 0.187
991.200, 0.186
991.300, 0.189
991.400, 0.216
991.500, 0.172
991.600, 0.158
991.700, 0.184
991.800, 0.179
991.900, 0.154
992.000, 0.146
992.100, 0.170
992.200, 0.182
992.300, 0.182
992.400, 0.157
992.500, 0.144
992.600, 0.132
992.700, 0.125
992.800, 0.145
992.900, 0.167
993.000, 0.140
993.100, 0.147
993.200, 0.159
993.300, 0.143
993.400, 0.148
993.500, 0.153
993.600, 0.150
993.700, 0.168
993.800, 0.187
993.900, 0.174
994.000, 0.178
994.100, 0.145
994.200, 0.149
994.300, 0.149
994.400, 0.164
994.500, 0.148
994.600, 0.150
994.700, 0.148
994.800, 0.150
994.900, 0.171
995.000, 0.150
995.100, 0.152
995.200, 0.156
995.300, 0.142
995.400, 0.128
995.500, 0.122
995.600, 0.124
995.700, 0.147
995.800, 0.098
995.900, 0.118
996.000, 0.125
996.100, 0.137
996.200, 0.135
996.300, 0.136
996.400, 0.173
996.500, 0.160
996.600, 0.157
996.700, 0.156
996.800, 0.152
996.900, 0.180
997.000, 0.168
997.100, 0.140
997.200, 0.151
997.300, 0.177
997.400, 0.161
997.500, 0.197
997.600, 0.139
997.700, 0.162
997.800, 0.174
997.900, 0.150
998.000, 0.158
998.100, 0.158
998.200, 0.140
998.300, 0.148
998.400, 0.182
998.500, 0.166
998.600, 0.121
998.700, 0.094
998.800, 0.111
998.900, 0.115
999.000, 0.104
999.100, 0.076
999.200, 0.115
999.300, 0.115
999.400, 0.111
999.500, 0.114
999.600, 0.120
999.700, 0.080
999.800, 0.107
999.900, 0.009
1000.000, 0.000
