Time (ps), RMSD (nm)
0.000, 0.001
0.100, 0.193
0.200, 0.167
0.300, 0.185
0.400, 0.175
0.500, 0.178
0.600, 0.175
0.700, 0.182
0.800, 0.175
0.900, 0.188
1.000, 0.175
1.100, 0.170
1.200, 0.184
1.300, 0.182
1.400, 0.191
1.500, 0.174
1.600, 0.172
1.700, 0.168
1.800, 0.166
1.900, 0.186
2.000, 0.180
2.100, 0.166
2.200, 0.177
2.300, 0.172
2.400, 0.170
2.500, 0.162
2.600, 0.174
2.700, 0.184
2.800, 0.198
2.900, 0.174
3.000, 0.182
3.100, 0.184
3.200, 0.181
3.300, 0.178
3.400, 0.194
3.500, 0.189
3.600, 0.189
3.700, 0.173
3.800, 0.201
3.900, 0.185
4.000, 0.170
4.100, 0.173
4.200, 0.172
4.300, 0.169
4.400, 0.175
4.500, 0.173
4.600, 0.193
4.700, 0.186
4.800, 0.177
4.900, 0.189
5.000, 0.193
5.100, 0.189
5.200, 0.181
5.300, 0.170
5.400, 0.183
5.500, 0.170
5.600, 0.174
5.700, 0.173
5.800, 0.179
5.900, 0.195
6.000, 0.173
6.100, 0.187
6.200, 0.163
6.300, 0.167
6.400, 0.181
6.500, 0.182
6.600, 0.164
6.700, 0.159
6.800, 0.158
6.900, 0.178
7.000, 0.176
7.100, 0.163
7.200, 0.161
7.300, 0.164
7.400, 0.183
7.500, 0.180
7.600, 0.175
7.700, 0.176
7.800, 0.174
7.900, 0.167
8.000, 0.185
8.100, 0.178
8.200, 0.181
8.300, 0.189
8.400, 0.187
8.500, 0.182
8.600, 0.181
8.700, 0.175
8.800, 0.169
8.900, 0.193
9.000, 0.185
9.100, 0.162
9.200, 0.162
9.300, 0.174
9.400, 0.163
9.500, 0.158
9.600, 0.158
9.700, 0.163
9.800, 0.155
9.900, 0.150
10.000, 0.157
10.100, 0.159
10.200, 0.166
10.300, 0.186
10.400, 0.181
10.500, 0.167
10.600, 0.160
10.700, 0.172
10.800, 0.150
10.900, 0.164
11.000, 0.177
11.100, 0.176
11.200, 0.179
11.300, 0.204
11.400, 0.180
11.500, 0.185
11.600, 0.189
11.700, 0.207
11.800, 0.191
11.900, 0.210
12.000, 0.188
12.100, 0.196
12.200, 0.235
12.300, 0.223
12.400, 0.214
12.500, 0.222
12.600, 0.234
12.700, 0.242
12.800, 0.255
12.900, 0.233
13.000, 0.225
13.100, 0.240
13.200, 0.222
13.300, 0.233
13.400, 0.256
13.500, 0.228
13.600, 0.242
13.700, 0.244
13.800, 0.235
13.900, 0.231
14.000, 0.247
14.100, 0.250
14.200, 0.275
14.300, 0.233
14.400, 0.246
14.500, 0.213
14.600, 0.217
14.700, 0.218
14.800, 0.230
14.900, 0.213
15.000, 0.215
15.100, 0.222
15.200, 0.220
15.300, 0.210
15.400, 0.196
15.500, 0.198
15.600, 0.209
15.700, 0.201
15.800, 0.191
15.900, 0.204
16.000, 0.211
16.100, 0.199
16.200, 0.210
16.300, 0.209
16.400, 0.213
16.500, 0.217
16.600, 0.213
16.700, 0.225
16.800, 0.235
16.900, 0.236
17.000, 0.228
17.100, 0.251
17.200, 0.240
17.300, 0.260
17.400, 0.244
17.500, 0.261
17.600, 0.223
17.700, 0.208
17.800, 0.237
17.900, 0.236
18.000, 0.229
18.100, 0.225
18.200, 0.223
18.300, 0.226
18.400, 0.221
18.500, 0.257
18.600, 0.259
18.700, 0.279
18.800, 0.269
18.900, 0.286
19.000, 0.290
19.100, 0.281
19.200, 0.283
19.300, 0.244
19.400, 0.241
19.500, 0.254
19.600, 0.248
19.700, 0.248
19.800, 0.251
19.900, 0.249
20.000, 0.267
20.100, 0.252
20.200, 0.267
20.300, 0.271
20.400, 0.265
20.500, 0.267
20.600, 0.242
20.700, 0.245
20.800, 0.250
20.900, 0.263
21.000, 0.248
21.100, 0.228
21.200, 0.243
21.300, 0.227
21.400, 0.229
21.500, 0.216
21.600, 0.225
21.700, 0.229
21.800, 0.212
21.900, 0.240
22.000, 0.227
22.100, 0.234
22.200, 0.260
22.300, 0.281
22.400, 0.276
22.500, 0.259
22.600, 0.244
22.700, 0.270
22.800, 0.285
22.900, 0.288
23.000, 0.298
23.100, 0.289
23.200, 0.288
23.300, 0.263
23.400, 0.255
23.500, 0.247
23.600, 0.260
23.700, 0.245
23.800, 0.246
23.900, 0.241
24.000, 0.225
24.100, 0.260
24.200, 0.261
24.300, 0.247
24.400, 0.245
24.500, 0.244
24.600, 0.259
24.700, 0.254
24.800, 0.249
24.900, 0.265
25.000, 0.246
25.100, 0.250
25.200, 0.229
25.300, 0.223
25.400, 0.251
25.500, 0.229
25.600, 0.229
25.700, 0.228
25.800, 0.230
25.900, 0.256
26.000, 0.273
26.100, 0.260
26.200, 0.251
26.300, 0.252
26.400, 0.264
26.500, 0.252
26.600, 0.261
26.700, 0.263
26.800, 0.290
26.900, 0.274
27.000, 0.258
27.100, 0.262
27.200, 0.239
27.300, 0.253
27.400, 0.272
27.500, 0.259
27.600, 0.259
27.700, 0.274
27.800, 0.247
27.900, 0.259
28.000, 0.296
28.100, 0.235
28.200, 0.243
28.300, 0.254
28.400, 0.254
28.500, 0.224
28.600, 0.249
28.700, 0.269
28.800, 0.226
28.900, 0.230
29.000, 0.231
29.100, 0.237
29.200, 0.254
29.300, 0.239
29.400, 0.251
29.500, 0.248
29.600, 0.247
29.700, 0.246
29.800, 0.262
29.900, 0.254
30.000, 0.261
30.100, 0.247
30.200, 0.245
30.300, 0.248
30.400, 0.243
30.500, 0.244
30.600, 0.233
30.700, 0.244
30.800, 0.237
30.900, 0.240
31.000, 0.235
31.100, 0.251
31.200, 0.233
31.300, 0.237
31.400, 0.235
31.500, 0.244
31.600, 0.241
31.700, 0.235
31.800, 0.229
31.900, 0.220
32.000, 0.225
32.100, 0.224
32.200, 0.232
32.300, 0.253
32.400, 0.256
32.500, 0.244
32.600, 0.239
32.700, 0.242
32.800, 0.248
32.900, 0.267
33.000, 0.262
33.100, 0.268
33.200, 0.282
33.300, 0.266
33.400, 0.264
33.500, 0.238
33.600, 0.280
33.700, 0.268
33.800, 0.234
33.900, 0.235
34.000, 0.268
34.100, 0.257
34.200, 0.267
34.300, 0.282
34.400, 0.287
34.500, 0.281
34.600, 0.261
34.700, 0.248
34.800, 0.275
34.900, 0.241
35.000, 0.272
35.100, 0.275
35.200, 0.271
35.300, 0.293
35.400, 0.283
35.500, 0.256
35.600, 0.258
35.700, 0.269
35.800, 0.267
35.900, 0.265
36.000, 0.250
36.100, 0.242
36.200, 0.258
36.300, 0.258
36.400, 0.248
36.500, 0.248
36.600, 0.241
36.700, 0.263
36.800, 0.252
36.900, 0.224
37.000, 0.224
37.100, 0.242
37.200, 0.240
37.300, 0.253
37.400, 0.252
37.500, 0.231
37.600, 0.247
37.700, 0.255
37.800, 0.270
37.900, 0.275
38.000, 0.257
38.100, 0.248
38.200, 0.254
38.300, 0.246
38.400, 0.229
38.500, 0.244
38.600, 0.263
38.700, 0.256
38.800, 0.245
38.900, 0.244
39.000, 0.238
39.100, 0.253
39.200, 0.242
39.300, 0.263
39.400, 0.238
39.500, 0.228
39.600, 0.232
39.700, 0.215
39.800, 0.239
39.900, 0.235
40.000, 0.231
40.100, 0.259
40.200, 0.241
40.300, 0.257
40.400, 0.219
40.500, 0.233
40.600, 0.223
40.700, 0.241
40.800, 0.237
40.900, 0.230
41.000, 0.251
41.100, 0.236
41.200, 0.220
41.300, 0.221
41.400, 0.220
41.500, 0.227
41.600, 0.246
41.700, 0.236
41.800, 0.229
41.900, 0.268
42.000, 0.273
42.100, 0.273
42.200, 0.253
42.300, 0.247
42.400, 0.274
42.500, 0.250
42.600, 0.252
42.700, 0.250
42.800, 0.255
42.900, 0.255
43.000, 0.253
43.100, 0.265
43.200, 0.286
43.300, 0.256
43.400, 0.277
43.500, 0.269
43.600, 0.263
43.700, 0.275
43.800, 0.293
43.900, 0.293
44.000, 0.295
44.100, 0.274
44.200, 0.253
44.300, 0.249
44.400, 0.263
44.500, 0.235
44.600, 0.232
44.700, 0.231
44.800, 0.240
44.900, 0.232
45.000, 0.252
45.100, 0.272
45.200, 0.272
45.300, 0.256
45.400, 0.275
45.500, 0.237
45.600, 0.234
45.700, 0.232
45.800, 0.243
45.900, 0.260
46.000, 0.250
46.100, 0.225
46.200, 0.220
46.300, 0.221
46.400, 0.250
46.500, 0.240
46.600, 0.223
46.700, 0.245
46.800, 0.255
46.900, 0.223
47.000, 0.261
47.100, 0.248
47.200, 0.259
47.300, 0.246
47.400, 0.278
47.500, 0.260
47.600, 0.239
47.700, 0.283
47.800, 0.283
47.900, 0.241
48.000, 0.245
48.100, 0.238
48.200, 0.257
48.300, 0.253
48.400, 0.267
48.500, 0.290
48.600, 0.280
48.700, 0.280
48.800, 0.259
48.900, 0.283
49.000, 0.283
49.100, 0.247
49.200, 0.258
49.300, 0.272
49.400, 0.258
49.500, 0.277
49.600, 0.279
49.700, 0.296
49.800, 0.245
49.900, 0.270
50.000, 0.240
50.100, 0.250
50.200, 0.221
50.300, 0.224
50.400, 0.231
50.500, 0.230
50.600, 0.258
50.700, 0.274
50.800, 0.248
50.900, 0.265
51.000, 0.256
51.100, 0.239
51.200, 0.242
51.300, 0.226
51.400, 0.254
51.500, 0.270
51.600, 0.283
51.700, 0.245
51.800, 0.265
51.900, 0.269
52.000, 0.297
52.100, 0.291
52.200, 0.260
52.300, 0.295
52.400, 0.302
52.500, 0.273
52.600, 0.259
52.700, 0.263
52.800, 0.273
52.900, 0.270
53.000, 0.294
53.100, 0.278
53.200, 0.266
53.300, 0.285
53.400, 0.272
53.500, 0.255
53.600, 0.231
53.700, 0.269
53.800, 0.256
53.900, 0.252
54.000, 0.216
54.100, 0.243
54.200, 0.255
54.300, 0.248
54.400, 0.262
54.500, 0.274
54.600, 0.275
54.700, 0.275
54.800, 0.294
54.900, 0.300
55.000, 0.274
55.100, 0.265
55.200, 0.294
55.300, 0.251
55.400, 0.279
55.500, 0.274
55.600, 0.267
55.700, 0.260
55.800, 0.272
55.900, 0.287
56.000, 0.282
56.100, 0.273
56.200, 0.269
56.300, 0.249
56.400, 0.296
56.500, 0.278
56.600, 0.276
56.700, 0.274
56.800, 0.271
56.900, 0.262
57.000, 0.258
57.100, 0.263
57.200, 0.277
57.300, 0.300
57.400, 0.270
57.500, 0.281
57.600, 0.291
57.700, 0.302
57.800, 0.289
57.900, 0.299
58.000, 0.282
58.100, 0.279
58.200, 0.294
58.300, 0.274
58.400, 0.276
58.500, 0.284
58.600, 0.286
58.700, 0.308
58.800, 0.303
58.900, 0.327
59.000, 0.312
59.100, 0.300
59.200, 0.308
59.300, 0.296
59.400, 0.315
59.500, 0.293
59.600, 0.297
59.700, 0.294
59.800, 0.283
59.900, 0.287
60.000, 0.319
60.100, 0.338
60.200, 0.308
60.300, 0.318
60.400, 0.333
60.500, 0.300
60.600, 0.288
60.700, 0.313
60.800, 0.295
60.900, 0.303
61.000, 0.333
61.100, 0.316
61.200, 0.292
61.300, 0.278
61.400, 0.275
61.500, 0.271
61.600, 0.263
61.700, 0.282
61.800, 0.277
61.900, 0.280
62.000, 0.277
62.100, 0.277
62.200, 0.279
62.300, 0.292
62.400, 0.282
62.500, 0.304
62.600, 0.305
62.700, 0.299
62.800, 0.284
62.900, 0.311
63.000, 0.309
63.100, 0.292
63.200, 0.285
63.300, 0.254
63.400, 0.274
63.500, 0.269
63.600, 0.293
63.700, 0.290
63.800, 0.295
63.900, 0.296
64.000, 0.298
64.100, 0.325
64.200, 0.322
64.300, 0.339
64.400, 0.286
64.500, 0.300
64.600, 0.284
64.700, 0.294
64.800, 0.281
64.900, 0.301
65.000, 0.274
65.100, 0.326
65.200, 0.306
65.300, 0.291
65.400, 0.310
65.500, 0.326
65.600, 0.313
65.700, 0.312
65.800, 0.336
65.900, 0.341
66.000, 0.339
66.100, 0.349
66.200, 0.342
66.300, 0.319
66.400, 0.327
66.500, 0.346
66.600, 0.342
66.700, 0.366
66.800, 0.341
66.900, 0.310
67.000, 0.291
67.100, 0.307
67.200, 0.327
67.300, 0.297
67.400, 0.272
67.500, 0.312
67.600, 0.299
67.700, 0.261
67.800, 0.265
67.900, 0.275
68.000, 0.302
68.100, 0.317
68.200, 0.284
68.300, 0.291
68.400, 0.274
68.500, 0.303
68.600, 0.296
68.700, 0.300
68.800, 0.279
68.900, 0.288
69.000, 0.293
69.100, 0.284
69.200, 0.310
69.300, 0.329
69.400, 0.311
69.500, 0.256
69.600, 0.270
69.700, 0.254
69.800, 0.273
69.900, 0.307
70.000, 0.288
70.100, 0.291
70.200, 0.282
70.300, 0.310
70.400, 0.325
70.500, 0.345
70.600, 0.340
70.700, 0.299
70.800, 0.300
70.900, 0.290
71.000, 0.293
71.100, 0.278
71.200, 0.287
71.300, 0.309
71.400, 0.307
71.500, 0.304
71.600, 0.308
71.700, 0.308
71.800, 0.280
71.900, 0.298
72.000, 0.291
72.100, 0.286
72.200, 0.298
72.300, 0.333
72.400, 0.345
72.500, 0.327
72.600, 0.320
72.700, 0.324
72.800, 0.313
72.900, 0.314
73.000, 0.299
73.100, 0.301
73.200, 0.302
73.300, 0.295
73.400, 0.303
73.500, 0.302
73.600, 0.294
73.700, 0.316
73.800, 0.287
73.900, 0.314
74.000, 0.315
74.100, 0.284
74.200, 0.300
74.300, 0.319
74.400, 0.296
74.500, 0.274
74.600, 0.286
74.700, 0.284
74.800, 0.283
74.900, 0.281
75.000, 0.293
75.100, 0.267
75.200, 0.294
75.300, 0.302
75.400, 0.309
75.500, 0.297
75.600, 0.314
75.700, 0.295
75.800, 0.284
75.900, 0.288
76.000, 0.306
76.100, 0.292
76.200, 0.281
76.300, 0.302
76.400, 0.285
76.500, 0.267
76.600, 0.272
76.700, 0.250
76.800, 0.278
76.900, 0.291
77.000, 0.312
77.100, 0.310
77.200, 0.287
77.300, 0.269
77.400, 0.284
77.500, 0.276
77.600, 0.267
77.700, 0.279
77.800, 0.265
77.900, 0.246
78.000, 0.232
78.100, 0.237
78.200, 0.275
78.300, 0.279
78.400, 0.241
78.500, 0.262
78.600, 0.269
78.700, 0.287
78.800, 0.273
78.900, 0.286
79.000, 0.272
79.100, 0.292
79.200, 0.280
79.300, 0.293
79.400, 0.299
79.500, 0.290
79.600, 0.290
79.700, 0.305
79.800, 0.289
79.900, 0.286
80.000, 0.287
80.100, 0.294
80.200, 0.291
80.300, 0.285
80.400, 0.297
80.500, 0.301
80.600, 0.302
80.700, 0.304
80.800, 0.310
80.900, 0.310
81.000, 0.287
81.100, 0.279
81.200, 0.287
81.300, 0.274
81.400, 0.285
81.500, 0.297
81.600, 0.273
81.700, 0.286
81.800, 0.271
81.900, 0.286
82.000, 0.284
82.100, 0.298
82.200, 0.296
82.300, 0.264
82.400, 0.230
82.500, 0.273
82.600, 0.244
82.700, 0.247
82.800, 0.251
82.900, 0.223
83.000, 0.252
83.100, 0.248
83.200, 0.256
83.300, 0.234
83.400, 0.272
83.500, 0.270
83.600, 0.263
83.700, 0.249
83.800, 0.268
83.900, 0.272
84.000, 0.257
84.100, 0.248
84.200, 0.260
84.300, 0.257
84.400, 0.265
84.500, 0.268
84.600, 0.256
84.700, 0.266
84.800, 0.252
84.900, 0.247
85.000, 0.252
85.100, 0.256
85.200, 0.256
85.300, 0.276
85.400, 0.257
85.500, 0.243
85.600, 0.252
85.700, 0.273
85.800, 0.258
85.900, 0.292
86.000, 0.291
86.100, 0.311
86.200, 0.306
86.300, 0.290
86.400, 0.275
86.500, 0.256
86.600, 0.280
86.700, 0.271
86.800, 0.303
86.900, 0.284
87.000, 0.304
87.100, 0.320
87.200, 0.334
87.300, 0.328
87.400, 0.299
87.500, 0.309
87.600, 0.334
87.700, 0.285
87.800, 0.298
87.900, 0.292
88.000, 0.291
88.100, 0.286
88.200, 0.306
88.300, 0.306
88.400, 0.296
88.500, 0.282
88.600, 0.293
88.700, 0.298
88.800, 0.285
88.900, 0.292
89.000, 0.318
89.100, 0.311
89.200, 0.294
89.300, 0.283
89.400, 0.285
89.500, 0.313
89.600, 0.331
89.700, 0.290
89.800, 0.291
89.900, 0.292
90.000, 0.296
90.100, 0.291
90.200, 0.260
90.300, 0.276
90.400, 0.281
90.500, 0.281
90.600, 0.307
90.700, 0.284
90.800, 0.302
90.900, 0.303
91.000, 0.294
91.100, 0.308
91.200, 0.305
91.300, 0.303
91.400, 0.284
91.500, 0.282
91.600, 0.291
91.700, 0.274
91.800, 0.284
91.900, 0.293
92.000, 0.284
92.100, 0.296
92.200, 0.305
92.300, 0.306
92.400, 0.306
92.500, 0.301
92.600, 0.307
92.700, 0.276
92.800, 0.298
92.900, 0.285
93.000, 0.275
93.100, 0.260
93.200, 0.249
93.300, 0.258
93.400, 0.267
93.500, 0.305
93.600, 0.273
93.700, 0.288
93.800, 0.292
93.900, 0.281
94.000, 0.304
94.100, 0.305
94.200, 0.286
94.300, 0.305
94.400, 0.287
94.500, 0.297
94.600, 0.302
94.700, 0.272
94.800, 0.255
94.900, 0.252
95.000, 0.283
95.100, 0.286
95.200, 0.294
95.300, 0.290
95.400, 0.268
95.500, 0.299
95.600, 0.321
95.700, 0.291
95.800, 0.294
95.900, 0.289
96.000, 0.285
96.100, 0.304
96.200, 0.311
96.300, 0.313
96.400, 0.299
96.500, 0.329
96.600, 0.297
96.700, 0.307
96.800, 0.274
96.900, 0.258
97.000, 0.294
97.100, 0.277
97.200, 0.276
97.300, 0.280
97.400, 0.281
97.500, 0.315
97.600, 0.290
97.700, 0.315
97.800, 0.290
97.900, 0.313
98.000, 0.258
98.100, 0.269
98.200, 0.268
98.300, 0.321
98.400, 0.331
98.500, 0.300
98.600, 0.330
98.700, 0.327
98.800, 0.297
98.900, 0.306
99.000, 0.316
99.100, 0.305
99.200, 0.320
99.300, 0.301
99.400, 0.328
99.500, 0.326
99.600, 0.313
99.700, 0.299
99.800, 0.320
99.900, 0.317
100.000, 0.280
100.100, 0.301
100.200, 0.301
100.300, 0.329
100.400, 0.324
100.500, 0.322
100.600, 0.307
100.700, 0.292
100.800, 0.317
100.900, 0.293
101.000, 0.285
101.100, 0.286
101.200, 0.268
101.300, 0.289
101.400, 0.310
101.500, 0.294
101.600, 0.263
101.700, 0.258
101.800, 0.241
101.900, 0.219
102.000, 0.222
102.100, 0.218
102.200, 0.246
102.300, 0.228
102.400, 0.233
102.500, 0.234
102.600, 0.249
102.700, 0.228
102.800, 0.231
102.900, 0.243
103.000, 0.245
103.100, 0.225
103.200, 0.241
103.300, 0.219
103.400, 0.235
103.500, 0.259
103.600, 0.261
103.700, 0.260
103.800, 0.244
103.900, 0.245
104.000, 0.243
104.100, 0.255
104.200, 0.249
104.300, 0.257
104.400, 0.244
104.500, 0.258
104.600, 0.250
104.700, 0.252
104.800, 0.227
104.900, 0.238
105.000, 0.230
105.100, 0.214
105.200, 0.230
105.300, 0.218
105.400, 0.225
105.500, 0.235
105.600, 0.256
105.700, 0.268
105.800, 0.269
105.900, 0.294
106.000, 0.280
106.100, 0.267
106.200, 0.280
106.300, 0.255
106.400, 0.265
106.500, 0.273
106.600, 0.290
106.700, 0.289
106.800, 0.272
106.900, 0.265
107.000, 0.284
107.100, 0.272
107.200, 0.296
107.300, 0.298
107.400, 0.264
107.500, 0.273
107.600, 0.325
107.700, 0.266
107.800, 0.237
107.900, 0.236
108.000, 0.251
108.100, 0.275
108.200, 0.252
108.300, 0.268
108.400, 0.297
108.500, 0.265
108.600, 0.266
108.700, 0.303
108.800, 0.255
108.900, 0.274
109.000, 0.248
109.100, 0.261
109.200, 0.250
109.300, 0.276
109.400, 0.276
109.500, 0.269
109.600, 0.240
109.700, 0.247
109.800, 0.268
109.900, 0.273
110.000, 0.265
110.100, 0.254
110.200, 0.261
110.300, 0.232
110.400, 0.236
110.500, 0.222
110.600, 0.231
110.700, 0.231
110.800, 0.225
110.900, 0.228
111.000, 0.234
111.100, 0.250
111.200, 0.258
111.300, 0.283
111.400, 0.270
111.500, 0.293
111.600, 0.304
111.700, 0.261
111.800, 0.248
111.900, 0.276
112.000, 0.270
112.100, 0.281
112.200, 0.289
112.300, 0.302
112.400, 0.308
112.500, 0.291
112.600, 0.281
112.700, 0.307
112.800, 0.284
112.900, 0.279
113.000, 0.246
113.100, 0.261
113.200, 0.268
113.300, 0.296
113.400, 0.303
113.500, 0.274
113.600, 0.262
113.700, 0.281
113.800, 0.293
113.900, 0.298
114.000, 0.300
114.100, 0.304
114.200, 0.270
114.300, 0.270
114.400, 0.269
114.500, 0.305
114.600, 0.269
114.700, 0.260
114.800, 0.279
114.900, 0.262
115.000, 0.278
115.100, 0.248
115.200, 0.236
115.300, 0.263
115.400, 0.262
115.500, 0.273
115.600, 0.266
115.700, 0.260
115.800, 0.261
115.900, 0.259
116.000, 0.230
116.100, 0.248
116.200, 0.238
116.300, 0.230
116.400, 0.211
116.500, 0.252
116.600, 0.244
116.700, 0.244
116.800, 0.256
116.900, 0.240
117.000, 0.247
117.100, 0.239
117.200, 0.244
117.300, 0.228
117.400, 0.208
117.500, 0.201
117.600, 0.242
117.700, 0.231
117.800, 0.221
117.900, 0.226
118.000, 0.236
118.100, 0.236
118.200, 0.226
118.300, 0.227
118.400, 0.229
118.500, 0.246
118.600, 0.241
118.700, 0.228
118.800, 0.244
118.900, 0.239
119.000, 0.240
119.100, 0.235
119.200, 0.227
119.300, 0.224
119.400, 0.229
119.500, 0.210
119.600, 0.230
119.700, 0.243
119.800, 0.217
119.900, 0.216
120.000, 0.196
120.100, 0.226
120.200, 0.215
120.300, 0.205
120.400, 0.224
120.500, 0.238
120.600, 0.244
120.700, 0.238
120.800, 0.269
120.900, 0.287
121.000, 0.258
121.100, 0.258
121.200, 0.268
121.300, 0.263
121.400, 0.290
121.500, 0.267
121.600, 0.252
121.700, 0.244
121.800, 0.255
121.900, 0.233
122.000, 0.223
122.100, 0.240
122.200, 0.247
122.300, 0.231
122.400, 0.219
122.500, 0.222
122.600, 0.219
122.700, 0.222
122.800, 0.243
122.900, 0.263
123.000, 0.305
123.100, 0.250
123.200, 0.245
123.300, 0.243
123.400, 0.218
123.500, 0.236
123.600, 0.264
123.700, 0.248
123.800, 0.251
123.900, 0.257
124.000, 0.237
124.100, 0.267
124.200, 0.278
124.300, 0.255
124.400, 0.239
124.500, 0.269
124.600, 0.268
124.700, 0.261
124.800, 0.296
124.900, 0.280
125.000, 0.278
125.100, 0.238
125.200, 0.265
125.300, 0.237
125.400, 0.236
125.500, 0.237
125.600, 0.240
125.700, 0.246
125.800, 0.240
125.900, 0.264
126.000, 0.257
126.100, 0.284
126.200, 0.273
126.300, 0.246
126.400, 0.254
126.500, 0.288
126.600, 0.274
126.700, 0.246
126.800, 0.228
126.900, 0.263
127.000, 0.245
127.100, 0.209
127.200, 0.216
127.300, 0.215
127.400, 0.245
127.500, 0.225
127.600, 0.226
127.700, 0.218
127.800, 0.217
127.900, 0.221
128.000, 0.219
128.100, 0.194
128.200, 0.228
128.300, 0.195
128.400, 0.206
128.500, 0.164
128.600, 0.191
128.700, 0.209
128.800, 0.191
128.900, 0.199
129.000, 0.187
129.100, 0.212
129.200, 0.209
129.300, 0.266
129.400, 0.264
129.500, 0.285
129.600, 0.241
129.700, 0.226
129.800, 0.223
129.900, 0.227
130.000, 0.221
130.100, 0.223
130.200, 0.223
130.300, 0.194
130.400, 0.205
130.500, 0.208
130.600, 0.214
130.700, 0.234
130.800, 0.200
130.900, 0.200
131.000, 0.238
131.100, 0.229
131.200, 0.215
131.300, 0.224
131.400, 0.188
131.500, 0.189
131.600, 0.179
131.700, 0.187
131.800, 0.177
131.900, 0.193
132.000, 0.207
132.100, 0.210
132.200, 0.193
132.300, 0.197
132.400, 0.213
132.500, 0.219
132.600, 0.205
132.700, 0.213
132.800, 0.211
132.900, 0.198
133.000, 0.198
133.100, 0.219
133.200, 0.208
133.300, 0.210
133.400, 0.209
133.500, 0.167
133.600, 0.182
133.700, 0.192
133.800, 0.208
133.900, 0.230
134.000, 0.207
134.100, 0.204
134.200, 0.212
134.300, 0.187
134.400, 0.211
134.500, 0.225
134.600, 0.200
134.700, 0.220
134.800, 0.226
134.900, 0.209
135.000, 0.208
135.100, 0.226
135.200, 0.225
135.300, 0.251
135.400, 0.216
135.500, 0.270
135.600, 0.234
135.700, 0.217
135.800, 0.223
135.900, 0.209
136.000, 0.203
136.100, 0.200
136.200, 0.207
136.300, 0.220
136.400, 0.200
136.500, 0.198
136.600, 0.216
136.700, 0.194
136.800, 0.208
136.900, 0.213
137.000, 0.213
137.100, 0.204
137.200, 0.229
137.300, 0.213
137.400, 0.218
137.500, 0.197
137.600, 0.191
137.700, 0.212
137.800, 0.239
137.900, 0.198
138.000, 0.222
138.100, 0.256
138.200, 0.243
138.300, 0.211
138.400, 0.224
138.500, 0.234
138.600, 0.209
138.700, 0.230
138.800, 0.213
138.900, 0.219
139.000, 0.201
139.100, 0.199
139.200, 0.221
139.300, 0.214
139.400, 0.197
139.500, 0.200
139.600, 0.212
139.700, 0.210
139.800, 0.225
139.900, 0.215
140.000, 0.210
140.100, 0.225
140.200, 0.183
140.300, 0.190
140.400, 0.215
140.500, 0.220
140.600, 0.203
140.700, 0.210
140.800, 0.215
140.900, 0.171
141.000, 0.169
141.100, 0.201
141.200, 0.199
141.300, 0.183
141.400, 0.181
141.500, 0.183
141.600, 0.175
141.700, 0.168
141.800, 0.189
141.900, 0.218
142.000, 0.195
142.100, 0.198
142.200, 0.196
142.300, 0.198
142.400, 0.223
142.500, 0.209
142.600, 0.200
142.700, 0.211
142.800, 0.189
142.900, 0.197
143.000, 0.208
143.100, 0.195
143.200, 0.213
143.300, 0.201
143.400, 0.228
143.500, 0.192
143.600, 0.184
143.700, 0.162
143.800, 0.164
143.900, 0.150
144.000, 0.182
144.100, 0.174
144.200, 0.187
144.300, 0.222
144.400, 0.221
144.500, 0.206
144.600, 0.209
144.700, 0.208
144.800, 0.200
144.900, 0.186
145.000, 0.184
145.100, 0.190
145.200, 0.187
145.300, 0.209
145.400, 0.215
145.500, 0.196
145.600, 0.187
145.700, 0.255
145.800, 0.244
145.900, 0.225
146.000, 0.226
146.100, 0.217
146.200, 0.207
146.300, 0.206
146.400, 0.203
146.500, 0.197
146.600, 0.187
146.700, 0.178
146.800, 0.177
146.900, 0.186
147.000, 0.175
147.100, 0.197
147.200, 0.185
147.300, 0.212
147.400, 0.187
147.500, 0.189
147.600, 0.164
147.700, 0.206
147.800, 0.186
147.900, 0.184
148.000, 0.184
148.100, 0.187
148.200, 0.217
148.300, 0.223
148.400, 0.223
148.500, 0.200
148.600, 0.206
148.700, 0.203
148.800, 0.194
148.900, 0.200
149.000, 0.187
149.100, 0.193
149.200, 0.188
149.300, 0.201
149.400, 0.206
149.500, 0.197
149.600, 0.182
149.700, 0.192
149.800, 0.203
149.900, 0.196
150.000, 0.187
150.100, 0.187
150.200, 0.191
150.300, 0.202
150.400, 0.194
150.500, 0.202
150.600, 0.201
150.700, 0.191
150.800, 0.175
150.900, 0.248
151.000, 0.257
151.100, 0.207
151.200, 0.231
151.300, 0.221
151.400, 0.192
151.500, 0.183
151.600, 0.205
151.700, 0.214
151.800, 0.214
151.900, 0.211
152.000, 0.191
152.100, 0.201
152.200, 0.219
152.300, 0.213
152.400, 0.195
152.500, 0.205
152.600, 0.229
152.700, 0.245
152.800, 0.221
152.900, 0.262
153.000, 0.239
153.100, 0.243
153.200, 0.231
153.300, 0.222
153.400, 0.219
153.500, 0.243
153.600, 0.224
153.700, 0.219
153.800, 0.220
153.900, 0.228
154.000, 0.231
154.100, 0.217
154.200, 0.217
154.300, 0.217
154.400, 0.211
154.500, 0.237
154.600, 0.242
154.700, 0.209
154.800, 0.235
154.900, 0.232
155.000, 0.234
155.100, 0.229
155.200, 0.226
155.300, 0.234
155.400, 0.237
155.500, 0.228
155.600, 0.225
155.700, 0.235
155.800, 0.227
155.900, 0.234
156.000, 0.220
156.100, 0.216
156.200, 0.207
156.300, 0.211
156.400, 0.218
156.500, 0.241
156.600, 0.236
156.700, 0.227
156.800, 0.231
156.900, 0.218
157.000, 0.232
157.100, 0.222
157.200, 0.205
157.300, 0.219
157.400, 0.218
157.500, 0.202
157.600, 0.242
157.700, 0.251
157.800, 0.255
157.900, 0.236
158.000, 0.239
158.100, 0.227
158.200, 0.245
158.300, 0.234
158.400, 0.228
158.500, 0.224
158.600, 0.245
158.700, 0.243
158.800, 0.230
158.900, 0.247
159.000, 0.260
159.100, 0.265
159.200, 0.247
159.300, 0.265
159.400, 0.258
159.500, 0.252
159.600, 0.253
159.700, 0.272
159.800, 0.262
159.900, 0.259
160.000, 0.269
160.100, 0.267
160.200, 0.275
160.300, 0.272
160.400, 0.250
160.500, 0.240
160.600, 0.242
160.700, 0.226
160.800, 0.238
160.900, 0.225
161.000, 0.232
161.100, 0.234
161.200, 0.256
161.300, 0.239
161.400, 0.242
161.500, 0.250
161.600, 0.228
161.700, 0.227
161.800, 0.235
161.900, 0.230
162.000, 0.238
162.100, 0.233
162.200, 0.240
162.300, 0.256
162.400, 0.225
162.500, 0.235
162.600, 0.244
162.700, 0.214
162.800, 0.235
162.900, 0.234
163.000, 0.225
163.100, 0.230
163.200, 0.222
163.300, 0.230
163.400, 0.238
163.500, 0.231
163.600, 0.230
163.700, 0.255
163.800, 0.240
163.900, 0.208
164.000, 0.219
164.100, 0.259
164.200, 0.227
164.300, 0.246
164.400, 0.252
164.500, 0.268
164.600, 0.274
164.700, 0.259
164.800, 0.273
164.900, 0.265
165.000, 0.255
165.100, 0.244
165.200, 0.259
165.300, 0.246
165.400, 0.250
165.500, 0.265
165.600, 0.252
165.700, 0.278
165.800, 0.257
165.900, 0.265
166.000, 0.255
166.100, 0.244
166.200, 0.239
166.300, 0.235
166.400, 0.252
166.500, 0.236
166.600, 0.236
166.700, 0.259
166.800, 0.254
166.900, 0.242
167.000, 0.249
167.100, 0.254
167.200, 0.258
167.300, 0.232
167.400, 0.240
167.500, 0.251
167.600, 0.259
167.700, 0.243
167.800, 0.254
167.900, 0.230
168.000, 0.241
168.100, 0.246
168.200, 0.236
168.300, 0.244
168.400, 0.235
168.500, 0.241
168.600, 0.257
168.700, 0.224
168.800, 0.245
168.900, 0.251
169.000, 0.265
169.100, 0.253
169.200, 0.246
169.300, 0.257
169.400, 0.241
169.500, 0.247
169.600, 0.268
169.700, 0.233
169.800, 0.241
169.900, 0.228
170.000, 0.242
170.100, 0.230
170.200, 0.222
170.300, 0.235
170.400, 0.249
170.500, 0.249
170.600, 0.213
170.700, 0.215
170.800, 0.206
170.900, 0.232
171.000, 0.218
171.100, 0.197
171.200, 0.200
171.300, 0.206
171.400, 0.214
171.500, 0.211
171.600, 0.205
171.700, 0.203
171.800, 0.204
171.900, 0.226
172.000, 0.206
172.100, 0.214
172.200, 0.206
172.300, 0.201
172.400, 0.192
172.500, 0.204
172.600, 0.226
172.700, 0.206
172.800, 0.199
172.900, 0.212
173.000, 0.225
173.100, 0.215
173.200, 0.219
173.300, 0.240
173.400, 0.223
173.500, 0.243
173.600, 0.238
173.700, 0.229
173.800, 0.216
173.900, 0.227
174.000, 0.218
174.100, 0.211
174.200, 0.211
174.300, 0.210
174.400, 0.211
174.500, 0.220
174.600, 0.217
174.700, 0.226
174.800, 0.203
174.900, 0.227
175.000, 0.244
175.100, 0.206
175.200, 0.212
175.300, 0.223
175.400, 0.244
175.500, 0.241
175.600, 0.229
175.700, 0.218
175.800, 0.200
175.900, 0.222
176.000, 0.200
176.100, 0.201
176.200, 0.200
176.300, 0.206
176.400, 0.215
176.500, 0.219
176.600, 0.213
176.700, 0.202
176.800, 0.217
176.900, 0.229
177.000, 0.205
177.100, 0.224
177.200, 0.205
177.300, 0.212
177.400, 0.204
177.500, 0.225
177.600, 0.221
177.700, 0.221
177.800, 0.205
177.900, 0.231
178.000, 0.221
178.100, 0.214
178.200, 0.214
178.300, 0.200
178.400, 0.196
178.500, 0.199
178.600, 0.208
178.700, 0.203
178.800, 0.214
178.900, 0.217
179.000, 0.215
179.100, 0.193
179.200, 0.192
179.300, 0.220
179.400, 0.210
179.500, 0.210
179.600, 0.187
179.700, 0.187
179.800, 0.197
179.900, 0.204
180.000, 0.198
180.100, 0.206
180.200, 0.197
180.300, 0.211
180.400, 0.202
180.500, 0.204
180.600, 0.189
180.700, 0.206
180.800, 0.196
180.900, 0.219
181.000, 0.216
181.100, 0.214
181.200, 0.202
181.300, 0.204
181.400, 0.192
181.500, 0.188
181.600, 0.172
181.700, 0.188
181.800, 0.196
181.900, 0.185
182.000, 0.187
182.100, 0.182
182.200, 0.181
182.300, 0.183
182.400, 0.184
182.500, 0.187
182.600, 0.182
182.700, 0.175
182.800, 0.173
182.900, 0.194
183.000, 0.174
183.100, 0.189
183.200, 0.200
183.300, 0.201
183.400, 0.188
183.500, 0.181
183.600, 0.181
183.700, 0.201
183.800, 0.206
183.900, 0.195
184.000, 0.192
184.100, 0.193
184.200, 0.185
184.300, 0.202
184.400, 0.183
184.500, 0.189
184.600, 0.190
184.700, 0.195
184.800, 0.230
184.900, 0.199
185.000, 0.214
185.100, 0.187
185.200, 0.210
185.300, 0.205
185.400, 0.204
185.500, 0.199
185.600, 0.200
185.700, 0.206
185.800, 0.187
185.900, 0.188
186.000, 0.196
186.100, 0.181
186.200, 0.213
186.300, 0.202
186.400, 0.186
186.500, 0.184
186.600, 0.191
186.700, 0.190
186.800, 0.188
186.900, 0.179
187.000, 0.188
187.100, 0.189
187.200, 0.178
187.300, 0.176
187.400, 0.193
187.500, 0.204
187.600, 0.178
187.700, 0.200
187.800, 0.221
187.900, 0.202
188.000, 0.205
188.100, 0.216
188.200, 0.194
188.300, 0.212
188.400, 0.232
188.500, 0.203
188.600, 0.226
188.700, 0.235
188.800, 0.223
188.900, 0.194
189.000, 0.224
189.100, 0.208
189.200, 0.204
189.300, 0.184
189.400, 0.206
189.500, 0.194
189.600, 0.181
189.700, 0.191
189.800, 0.212
189.900, 0.195
190.000, 0.197
190.100, 0.181
190.200, 0.192
190.300, 0.189
190.400, 0.200
190.500, 0.206
190.600, 0.215
190.700, 0.219
190.800, 0.208
190.900, 0.217
191.000, 0.216
191.100, 0.219
191.200, 0.213
191.300, 0.229
191.400, 0.247
191.500, 0.215
191.600, 0.200
191.700, 0.223
191.800, 0.219
191.900, 0.205
192.000, 0.195
192.100, 0.204
192.200, 0.208
192.300, 0.201
192.400, 0.205
192.500, 0.191
192.600, 0.189
192.700, 0.191
192.800, 0.190
192.900, 0.164
193.000, 0.191
193.100, 0.216
193.200, 0.199
193.300, 0.218
193.400, 0.215
193.500, 0.215
193.600, 0.207
193.700, 0.210
193.800, 0.193
193.900, 0.212
194.000, 0.178
194.100, 0.188
194.200, 0.179
194.300, 0.190
194.400, 0.202
194.500, 0.207
194.600, 0.199
194.700, 0.205
194.800, 0.194
194.900, 0.222
195.000, 0.216
195.100, 0.207
195.200, 0.215
195.300, 0.203
195.400, 0.220
195.500, 0.210
195.600, 0.202
195.700, 0.199
195.800, 0.203
195.900, 0.191
196.000, 0.192
196.100, 0.183
196.200, 0.177
196.300, 0.182
196.400, 0.179
196.500, 0.209
196.600, 0.184
196.700, 0.194
196.800, 0.181
196.900, 0.182
197.000, 0.183
197.100, 0.185
197.200, 0.188
197.300, 0.182
197.400, 0.169
197.500, 0.180
197.600, 0.228
197.700, 0.215
197.800, 0.207
197.900, 0.228
198.000, 0.217
198.100, 0.203
198.200, 0.194
198.300, 0.219
198.400, 0.212
198.500, 0.220
198.600, 0.235
198.700, 0.248
198.800, 0.236
198.900, 0.220
199.000, 0.211
199.100, 0.225
199.200, 0.236
199.300, 0.212
199.400, 0.194
199.500, 0.195
199.600, 0.210
199.700, 0.235
199.800, 0.248
199.900, 0.211
200.000, 0.216
200.100, 0.201
200.200, 0.197
200.300, 0.211
200.400, 0.218
200.500, 0.204
200.600, 0.194
200.700, 0.206
200.800, 0.225
200.900, 0.196
201.000, 0.198
201.100, 0.196
201.200, 0.197
201.300, 0.202
201.400, 0.198
201.500, 0.235
201.600, 0.209
201.700, 0.209
201.800, 0.214
201.900, 0.217
202.000, 0.203
202.100, 0.198
202.200, 0.227
202.300, 0.233
202.400, 0.203
202.500, 0.205
202.600, 0.214
202.700, 0.222
202.800, 0.225
202.900, 0.215
203.000, 0.196
203.100, 0.183
203.200, 0.190
203.300, 0.196
203.400, 0.192
203.500, 0.208
203.600, 0.224
203.700, 0.186
203.800, 0.187
203.900, 0.176
204.000, 0.192
204.100, 0.197
204.200, 0.201
204.300, 0.195
204.400, 0.211
204.500, 0.211
204.600, 0.210
204.700, 0.228
204.800, 0.233
204.900, 0.231
205.000, 0.217
205.100, 0.225
205.200, 0.225
205.300, 0.229
205.400, 0.223
205.500, 0.212
205.600, 0.201
205.700, 0.197
205.800, 0.240
205.900, 0.225
206.000, 0.219
206.100, 0.218
206.200, 0.208
206.300, 0.206
206.400, 0.218
206.500, 0.241
206.600, 0.235
206.700, 0.232
206.800, 0.206
206.900, 0.202
207.000, 0.233
207.100, 0.211
207.200, 0.187
207.300, 0.236
207.400, 0.251
207.500, 0.234
207.600, 0.235
207.700, 0.234
207.800, 0.228
207.900, 0.211
208.000, 0.225
208.100, 0.218
208.200, 0.207
208.300, 0.205
208.400, 0.230
208.500, 0.221
208.600, 0.236
208.700, 0.258
208.800, 0.243
208.900, 0.218
209.000, 0.234
209.100, 0.224
209.200, 0.226
209.300, 0.235
209.400, 0.218
209.500, 0.223
209.600, 0.233
209.700, 0.243
209.800, 0.222
209.900, 0.223
210.000, 0.228
210.100, 0.228
210.200, 0.234
210.300, 0.226
210.400, 0.229
210.500, 0.221
210.600, 0.234
210.700, 0.257
210.800, 0.237
210.900, 0.212
211.000, 0.248
211.100, 0.243
211.200, 0.234
211.300, 0.212
211.400, 0.229
211.500, 0.208
211.600, 0.230
211.700, 0.253
211.800, 0.240
211.900, 0.243
212.000, 0.236
212.100, 0.238
212.200, 0.237
212.300, 0.217
212.400, 0.229
212.500, 0.230
212.600, 0.232
212.700, 0.230
212.800, 0.217
212.900, 0.227
213.000, 0.213
213.100, 0.199
213.200, 0.224
213.300, 0.237
213.400, 0.206
213.500, 0.225
213.600, 0.237
213.700, 0.244
213.800, 0.217
213.900, 0.227
214.000, 0.215
214.100, 0.211
214.200, 0.222
214.300, 0.227
214.400, 0.212
214.500, 0.247
214.600, 0.226
214.700, 0.209
214.800, 0.229
214.900, 0.198
215.000, 0.202
215.100, 0.210
215.200, 0.223
215.300, 0.242
215.400, 0.226
215.500, 0.238
215.600, 0.236
215.700, 0.221
215.800, 0.207
215.900, 0.229
216.000, 0.217
216.100, 0.225
216.200, 0.220
216.300, 0.220
216.400, 0.208
216.500, 0.213
216.600, 0.217
216.700, 0.211
216.800, 0.195
216.900, 0.197
217.000, 0.192
217.100, 0.210
217.200, 0.208
217.300, 0.197
217.400, 0.206
217.500, 0.197
217.600, 0.208
217.700, 0.206
217.800, 0.192
217.900, 0.196
218.000, 0.191
218.100, 0.200
218.200, 0.206
218.300, 0.227
218.400, 0.206
218.500, 0.230
218.600, 0.193
218.700, 0.208
218.800, 0.194
218.900, 0.228
219.000, 0.221
219.100, 0.218
219.200, 0.185
219.300, 0.221
219.400, 0.210
219.500, 0.197
219.600, 0.235
219.700, 0.231
219.800, 0.210
219.900, 0.206
220.000, 0.211
220.100, 0.198
220.200, 0.226
220.300, 0.193
220.400, 0.218
220.500, 0.206
220.600, 0.206
220.700, 0.216
220.800, 0.220
220.900, 0.218
221.000, 0.204
221.100, 0.224
221.200, 0.221
221.300, 0.209
221.400, 0.204
221.500, 0.210
221.600, 0.203
221.700, 0.197
221.800, 0.211
221.900, 0.216
222.000, 0.212
222.100, 0.196
222.200, 0.228
222.300, 0.206
222.400, 0.228
222.500, 0.208
222.600, 0.203
222.700, 0.194
222.800, 0.199
222.900, 0.196
223.000, 0.192
223.100, 0.181
223.200, 0.207
223.300, 0.207
223.400, 0.193
223.500, 0.190
223.600, 0.206
223.700, 0.220
223.800, 0.232
223.900, 0.231
224.000, 0.229
224.100, 0.218
224.200, 0.226
224.300, 0.224
224.400, 0.230
224.500, 0.202
224.600, 0.202
224.700, 0.206
224.800, 0.229
224.900, 0.233
225.000, 0.223
225.100, 0.209
225.200, 0.199
225.300, 0.212
225.400, 0.238
225.500, 0.226
225.600, 0.209
225.700, 0.224
225.800, 0.207
225.900, 0.210
226.000, 0.219
226.100, 0.224
226.200, 0.212
226.300, 0.218
226.400, 0.223
226.500, 0.209
226.600, 0.185
226.700, 0.216
226.800, 0.206
226.900, 0.219
227.000, 0.214
227.100, 0.221
227.200, 0.224
227.300, 0.211
227.400, 0.237
227.500, 0.233
227.600, 0.218
227.700, 0.193
227.800, 0.207
227.900, 0.222
228.000, 0.214
228.100, 0.239
228.200, 0.220
228.300, 0.224
228.400, 0.224
228.500, 0.225
228.600, 0.209
228.700, 0.209
228.800, 0.228
228.900, 0.222
229.000, 0.222
229.100, 0.226
229.200, 0.239
229.300, 0.224
229.400, 0.208
229.500, 0.213
229.600, 0.228
229.700, 0.211
229.800, 0.212
229.900, 0.219
230.000, 0.206
230.100, 0.195
230.200, 0.199
230.300, 0.225
230.400, 0.224
230.500, 0.242
230.600, 0.221
230.700, 0.222
230.800, 0.234
230.900, 0.218
231.000, 0.234
231.100, 0.250
231.200, 0.255
231.300, 0.268
231.400, 0.282
231.500, 0.271
231.600, 0.231
231.700, 0.229
231.800, 0.247
231.900, 0.227
232.000, 0.225
232.100, 0.229
232.200, 0.241
232.300, 0.223
232.400, 0.246
232.500, 0.215
232.600, 0.231
232.700, 0.217
232.800, 0.207
232.900, 0.191
233.000, 0.215
233.100, 0.224
233.200, 0.256
233.300, 0.247
233.400, 0.213
233.500, 0.218
233.600, 0.218
233.700, 0.217
233.800, 0.210
233.900, 0.218
234.000, 0.194
234.100, 0.186
234.200, 0.226
234.300, 0.228
234.400, 0.202
234.500, 0.208
234.600, 0.224
234.700, 0.221
234.800, 0.212
234.900, 0.215
235.000, 0.217
235.100, 0.191
235.200, 0.215
235.300, 0.236
235.400, 0.233
235.500, 0.236
235.600, 0.224
235.700, 0.227
235.800, 0.207
235.900, 0.217
236.000, 0.199
236.100, 0.213
236.200, 0.225
236.300, 0.220
236.400, 0.255
236.500, 0.227
236.600, 0.215
236.700, 0.205
236.800, 0.201
236.900, 0.208
237.000, 0.216
237.100, 0.211
237.200, 0.207
237.300, 0.216
237.400, 0.194
237.500, 0.210
237.600, 0.221
237.700, 0.233
237.800, 0.229
237.900, 0.193
238.000, 0.213
238.100, 0.204
238.200, 0.188
238.300, 0.189
238.400, 0.206
238.500, 0.186
238.600, 0.216
238.700, 0.216
238.800, 0.204
238.900, 0.209
239.000, 0.196
239.100, 0.194
239.200, 0.204
239.300, 0.223
239.400, 0.229
239.500, 0.188
239.600, 0.178
239.700, 0.209
239.800, 0.200
239.900, 0.195
240.000, 0.199
240.100, 0.200
240.200, 0.195
240.300, 0.187
240.400, 0.185
240.500, 0.202
240.600, 0.196
240.700, 0.187
240.800, 0.211
240.900, 0.205
241.000, 0.197
241.100, 0.193
241.200, 0.187
241.300, 0.205
241.400, 0.199
241.500, 0.214
241.600, 0.199
241.700, 0.186
241.800, 0.184
241.900, 0.179
242.000, 0.187
242.100, 0.188
242.200, 0.175
242.300, 0.162
242.400, 0.167
242.500, 0.166
242.600, 0.180
242.700, 0.181
242.800, 0.168
242.900, 0.171
243.000, 0.166
243.100, 0.173
243.200, 0.170
243.300, 0.189
243.400, 0.215
243.500, 0.209
243.600, 0.178
243.700, 0.202
243.800, 0.221
243.900, 0.215
244.000, 0.224
244.100, 0.220
244.200, 0.217
244.300, 0.232
244.400, 0.201
244.500, 0.211
244.600, 0.204
244.700, 0.207
244.800, 0.166
244.900, 0.183
245.000, 0.186
245.100, 0.167
245.200, 0.161
245.300, 0.160
245.400, 0.159
245.500, 0.167
245.600, 0.186
245.700, 0.165
245.800, 0.165
245.900, 0.166
246.000, 0.163
246.100, 0.178
246.200, 0.155
246.300, 0.164
246.400, 0.170
246.500, 0.173
246.600, 0.163
246.700, 0.189
246.800, 0.176
246.900, 0.186
247.000, 0.184
247.100, 0.175
247.200, 0.162
247.300, 0.171
247.400, 0.164
247.500, 0.174
247.600, 0.173
247.700, 0.171
247.800, 0.165
247.900, 0.174
248.000, 0.173
248.100, 0.173
248.200, 0.172
248.300, 0.186
248.400, 0.187
248.500, 0.198
248.600, 0.195
248.700, 0.200
248.800, 0.202
248.900, 0.194
249.000, 0.204
249.100, 0.212
249.200, 0.213
249.300, 0.199
249.400, 0.202
249.500, 0.207
249.600, 0.233
249.700, 0.217
249.800, 0.203
249.900, 0.187
250.000, 0.194
250.100, 0.182
250.200, 0.193
250.300, 0.170
250.400, 0.176
250.500, 0.169
250.600, 0.166
250.700, 0.181
250.800, 0.186
250.900, 0.174
251.000, 0.175
251.100, 0.177
251.200, 0.183
251.300, 0.178
251.400, 0.182
251.500, 0.195
251.600, 0.183
251.700, 0.194
251.800, 0.189
251.900, 0.218
252.000, 0.243
252.100, 0.230
252.200, 0.206
252.300, 0.198
252.400, 0.195
252.500, 0.180
252.600, 0.180
252.700, 0.184
252.800, 0.191
252.900, 0.198
253.000, 0.203
253.100, 0.213
253.200, 0.194
253.300, 0.190
253.400, 0.191
253.500, 0.208
253.600, 0.216
253.700, 0.213
253.800, 0.184
253.900, 0.185
254.000, 0.212
254.100, 0.204
254.200, 0.225
254.300, 0.218
254.400, 0.214
254.500, 0.209
254.600, 0.204
254.700, 0.224
254.800, 0.209
254.900, 0.197
255.000, 0.220
255.100, 0.199
255.200, 0.216
255.300, 0.228
255.400, 0.236
255.500, 0.252
255.600, 0.250
255.700, 0.228
255.800, 0.219
255.900, 0.219
256.000, 0.226
256.100, 0.221
256.200, 0.228
256.300, 0.206
256.400, 0.206
256.500, 0.224
256.600, 0.220
256.700, 0.228
256.800, 0.221
256.900, 0.233
257.000, 0.222
257.100, 0.234
257.200, 0.243
257.300, 0.211
257.400, 0.198
257.500, 0.215
257.600, 0.218
257.700, 0.230
257.800, 0.224
257.900, 0.236
258.000, 0.207
258.100, 0.212
258.200, 0.210
258.300, 0.235
258.400, 0.226
258.500, 0.213
258.600, 0.227
258.700, 0.236
258.800, 0.235
258.900, 0.211
259.000, 0.220
259.100, 0.207
259.200, 0.200
259.300, 0.213
259.400, 0.232
259.500, 0.216
259.600, 0.213
259.700, 0.195
259.800, 0.202
259.900, 0.222
260.000, 0.235
260.100, 0.223
260.200, 0.225
260.300, 0.217
260.400, 0.208
260.500, 0.204
260.600, 0.207
260.700, 0.198
260.800, 0.189
260.900, 0.205
261.000, 0.190
261.100, 0.213
261.200, 0.229
261.300, 0.229
261.400, 0.215
261.500, 0.237
261.600, 0.230
261.700, 0.217
261.800, 0.207
261.900, 0.202
262.000, 0.200
262.100, 0.196
262.200, 0.192
262.300, 0.194
262.400, 0.194
262.500, 0.199
262.600, 0.207
262.700, 0.194
262.800, 0.208
262.900, 0.211
263.000, 0.224
263.100, 0.202
263.200, 0.206
263.300, 0.199
263.400, 0.230
263.500, 0.197
263.600, 0.198
263.700, 0.183
263.800, 0.196
263.900, 0.185
264.000, 0.221
264.100, 0.206
264.200, 0.227
264.300, 0.227
264.400, 0.204
264.500, 0.203
264.600, 0.185
264.700, 0.210
264.800, 0.197
264.900, 0.192
265.000, 0.187
265.100, 0.186
265.200, 0.176
265.300, 0.201
265.400, 0.196
265.500, 0.214
265.600, 0.204
265.700, 0.197
265.800, 0.195
265.900, 0.196
266.000, 0.197
266.100, 0.193
266.200, 0.162
266.300, 0.173
266.400, 0.168
266.500, 0.196
266.600, 0.201
266.700, 0.215
266.800, 0.246
266.900, 0.235
267.000, 0.265
267.100, 0.247
267.200, 0.226
267.300, 0.240
267.400, 0.240
267.500, 0.216
267.600, 0.207
267.700, 0.240
267.800, 0.233
267.900, 0.204
268.000, 0.229
268.100, 0.223
268.200, 0.203
268.300, 0.182
268.400, 0.183
268.500, 0.179
268.600, 0.168
268.700, 0.172
268.800, 0.168
268.900, 0.181
269.000, 0.193
269.100, 0.192
269.200, 0.182
269.300, 0.179
269.400, 0.183
269.500, 0.178
269.600, 0.195
269.700, 0.224
269.800, 0.219
269.900, 0.242
270.000, 0.202
270.100, 0.199
270.200, 0.226
270.300, 0.240
270.400, 0.206
270.500, 0.213
270.600, 0.222
270.700, 0.215
270.800, 0.211
270.900, 0.236
271.000, 0.216
271.100, 0.220
271.200, 0.218
271.300, 0.260
271.400, 0.247
271.500, 0.252
271.600, 0.235
271.700, 0.211
271.800, 0.221
271.900, 0.239
272.000, 0.207
272.100, 0.247
272.200, 0.207
272.300, 0.197
272.400, 0.177
272.500, 0.211
272.600, 0.219
272.700, 0.222
272.800, 0.223
272.900, 0.256
273.000, 0.217
273.100, 0.266
273.200, 0.220
273.300, 0.247
273.400, 0.233
273.500, 0.219
273.600, 0.211
273.700, 0.232
273.800, 0.222
273.900, 0.224
274.000, 0.203
274.100, 0.212
274.200, 0.192
274.300, 0.201
274.400, 0.181
274.500, 0.191
274.600, 0.192
274.700, 0.196
274.800, 0.188
274.900, 0.211
275.000, 0.206
275.100, 0.211
275.200, 0.192
275.300, 0.182
275.400, 0.203
275.500, 0.217
275.600, 0.220
275.700, 0.242
275.800, 0.242
275.900, 0.205
276.000, 0.186
276.100, 0.213
276.200, 0.206
276.300, 0.225
276.400, 0.222
276.500, 0.250
276.600, 0.205
276.700, 0.193
276.800, 0.206
276.900, 0.175
277.000, 0.168
277.100, 0.162
277.200, 0.165
277.300, 0.165
277.400, 0.202
277.500, 0.189
277.600, 0.194
277.700, 0.191
277.800, 0.174
277.900, 0.177
278.000, 0.169
278.100, 0.161
278.200, 0.184
278.300, 0.199
278.400, 0.193
278.500, 0.174
278.600, 0.181
278.700, 0.188
278.800, 0.191
278.900, 0.209
279.000, 0.211
279.100, 0.217
279.200, 0.224
279.300, 0.232
279.400, 0.272
279.500, 0.266
279.600, 0.239
279.700, 0.245
279.800, 0.218
279.900, 0.221
280.000, 0.213
280.100, 0.204
280.200, 0.209
280.300, 0.197
280.400, 0.204
280.500, 0.196
280.600, 0.217
280.700, 0.231
280.800, 0.197
280.900, 0.212
281.000, 0.219
281.100, 0.195
281.200, 0.223
281.300, 0.217
281.400, 0.244
281.500, 0.195
281.600, 0.198
281.700, 0.204
281.800, 0.200
281.900, 0.191
282.000, 0.194
282.100, 0.213
282.200, 0.210
282.300, 0.224
282.400, 0.234
282.500, 0.231
282.600, 0.220
282.700, 0.213
282.800, 0.205
282.900, 0.230
283.000, 0.234
283.100, 0.204
283.200, 0.185
283.300, 0.180
283.400, 0.206
283.500, 0.192
283.600, 0.232
283.700, 0.209
283.800, 0.207
283.900, 0.182
284.000, 0.185
284.100, 0.189
284.200, 0.190
284.300, 0.209
284.400, 0.201
284.500, 0.193
284.600, 0.213
284.700, 0.202
284.800, 0.198
284.900, 0.190
285.000, 0.189
285.100, 0.187
285.200, 0.213
285.300, 0.191
285.400, 0.189
285.500, 0.190
285.600, 0.192
285.700, 0.194
285.800, 0.181
285.900, 0.182
286.000, 0.214
286.100, 0.196
286.200, 0.208
286.300, 0.200
286.400, 0.213
286.500, 0.187
286.600, 0.212
286.700, 0.189
286.800, 0.211
286.900, 0.182
287.000, 0.187
287.100, 0.201
287.200, 0.205
287.300, 0.172
287.400, 0.184
287.500, 0.173
287.600, 0.178
287.700, 0.181
287.800, 0.193
287.900, 0.197
288.000, 0.189
288.100, 0.185
288.200, 0.194
288.300, 0.197
288.400, 0.194
288.500, 0.191
288.600, 0.196
288.700, 0.198
288.800, 0.195
288.900, 0.196
289.000, 0.196
289.100, 0.179
289.200, 0.195
289.300, 0.186
289.400, 0.188
289.500, 0.192
289.600, 0.193
289.700, 0.197
289.800, 0.201
289.900, 0.198
290.000, 0.196
290.100, 0.201
290.200, 0.195
290.300, 0.169
290.400, 0.179
290.500, 0.187
290.600, 0.204
290.700, 0.199
290.800, 0.197
290.900, 0.186
291.000, 0.198
291.100, 0.173
291.200, 0.187
291.300, 0.178
291.400, 0.179
291.500, 0.209
291.600, 0.189
291.700, 0.192
291.800, 0.198
291.900, 0.171
292.000, 0.184
292.100, 0.178
292.200, 0.158
292.300, 0.167
292.400, 0.166
292.500, 0.194
292.600, 0.204
292.700, 0.187
292.800, 0.188
292.900, 0.194
293.000, 0.213
293.100, 0.203
293.200, 0.171
293.300, 0.175
293.400, 0.173
293.500, 0.200
293.600, 0.176
293.700, 0.183
293.800, 0.209
293.900, 0.185
294.000, 0.178
294.100, 0.183
294.200, 0.166
294.300, 0.159
294.400, 0.162
294.500, 0.198
294.600, 0.170
294.700, 0.188
294.800, 0.186
294.900, 0.190
295.000, 0.208
295.100, 0.180
295.200, 0.182
295.300, 0.212
295.400, 0.191
295.500, 0.180
295.600, 0.160
295.700, 0.157
295.800, 0.165
295.900, 0.172
296.000, 0.176
296.100, 0.165
296.200, 0.155
296.300, 0.193
296.400, 0.204
296.500, 0.210
296.600, 0.190
296.700, 0.200
296.800, 0.227
296.900, 0.201
297.000, 0.227
297.100, 0.220
297.200, 0.194
297.300, 0.213
297.400, 0.210
297.500, 0.217
297.600, 0.209
297.700, 0.222
297.800, 0.211
297.900, 0.201
298.000, 0.203
298.100, 0.200
298.200, 0.201
298.300, 0.208
298.400, 0.215
298.500, 0.218
298.600, 0.244
298.700, 0.226
298.800, 0.198
298.900, 0.209
299.000, 0.219
299.100, 0.209
299.200, 0.209
299.300, 0.210
299.400, 0.204
299.500, 0.207
299.600, 0.213
299.700, 0.204
299.800, 0.202
299.900, 0.198
300.000, 0.217
300.100, 0.196
300.200, 0.209
300.300, 0.238
300.400, 0.223
300.500, 0.215
300.600, 0.227
300.700, 0.220
300.800, 0.219
300.900, 0.219
301.000, 0.216
301.100, 0.202
301.200, 0.228
301.300, 0.204
301.400, 0.231
301.500, 0.225
301.600, 0.203
301.700, 0.184
301.800, 0.170
301.900, 0.215
302.000, 0.196
302.100, 0.208
302.200, 0.178
302.300, 0.187
302.400, 0.206
302.500, 0.177
302.600, 0.183
302.700, 0.203
302.800, 0.211
302.900, 0.200
303.000, 0.192
303.100, 0.179
303.200, 0.167
303.300, 0.176
303.400, 0.188
303.500, 0.194
303.600, 0.184
303.700, 0.186
303.800, 0.194
303.900, 0.215
304.000, 0.208
304.100, 0.204
304.200, 0.203
304.300, 0.203
304.400, 0.197
304.500, 0.188
304.600, 0.188
304.700, 0.204
304.800, 0.185
304.900, 0.180
305.000, 0.176
305.100, 0.170
305.200, 0.158
305.300, 0.167
305.400, 0.184
305.500, 0.166
305.600, 0.171
305.700, 0.168
305.800, 0.177
305.900, 0.182
306.000, 0.188
306.100, 0.182
306.200, 0.172
306.300, 0.165
306.400, 0.170
306.500, 0.165
306.600, 0.157
306.700, 0.169
306.800, 0.168
306.900, 0.166
307.000, 0.178
307.100, 0.181
307.200, 0.166
307.300, 0.167
307.400, 0.160
307.500, 0.156
307.600, 0.163
307.700, 0.170
307.800, 0.176
307.900, 0.207
308.000, 0.179
308.100, 0.186
308.200, 0.212
308.300, 0.187
308.400, 0.166
308.500, 0.183
308.600, 0.189
308.700, 0.194
308.800, 0.194
308.900, 0.189
309.000, 0.194
309.100, 0.182
309.200, 0.191
309.300, 0.193
309.400, 0.214
309.500, 0.187
309.600, 0.190
309.700, 0.216
309.800, 0.207
309.900, 0.192
310.000, 0.222
310.100, 0.172
310.200, 0.166
310.300, 0.184
310.400, 0.188
310.500, 0.224
310.600, 0.184
310.700, 0.207
310.800, 0.195
310.900, 0.197
311.000, 0.184
311.100, 0.167
311.200, 0.172
311.300, 0.167
311.400, 0.211
311.500, 0.197
311.600, 0.227
311.700, 0.194
311.800, 0.190
311.900, 0.179
312.000, 0.166
312.100, 0.194
312.200, 0.191
312.300, 0.207
312.400, 0.175
312.500, 0.182
312.600, 0.199
312.700, 0.170
312.800, 0.183
312.900, 0.172
313.000, 0.171
313.100, 0.169
313.200, 0.164
313.300, 0.182
313.400, 0.185
313.500, 0.170
313.600, 0.178
313.700, 0.197
313.800, 0.180
313.900, 0.168
314.000, 0.194
314.100, 0.171
314.200, 0.168
314.300, 0.173
314.400, 0.160
314.500, 0.173
314.600, 0.170
314.700, 0.179
314.800, 0.173
314.900, 0.182
315.000, 0.212
315.100, 0.204
315.200, 0.207
315.300, 0.186
315.400, 0.188
315.500, 0.210
315.600, 0.188
315.700, 0.199
315.800, 0.196
315.900, 0.190
316.000, 0.185
316.100, 0.179
316.200, 0.164
316.300, 0.181
316.400, 0.164
316.500, 0.166
316.600, 0.156
316.700, 0.162
316.800, 0.167
316.900, 0.152
317.000, 0.186
317.100, 0.146
317.200, 0.159
317.300, 0.189
317.400, 0.179
317.500, 0.181
317.600, 0.181
317.700, 0.159
317.800, 0.156
317.900, 0.169
318.000, 0.163
318.100, 0.165
318.200, 0.157
318.300, 0.158
318.400, 0.164
318.500, 0.167
318.600, 0.191
318.700, 0.172
318.800, 0.192
318.900, 0.164
319.000, 0.160
319.100, 0.201
319.200, 0.181
319.300, 0.180
319.400, 0.163
319.500, 0.162
319.600, 0.196
319.700, 0.164
319.800, 0.174
319.900, 0.174
320.000, 0.180
320.100, 0.161
320.200, 0.146
320.300, 0.159
320.400, 0.146
320.500, 0.158
320.600, 0.145
320.700, 0.158
320.800, 0.163
320.900, 0.170
321.000, 0.150
321.100, 0.156
321.200, 0.170
321.300, 0.185
321.400, 0.175
321.500, 0.171
321.600, 0.164
321.700, 0.175
321.800, 0.176
321.900, 0.175
322.000, 0.189
322.100, 0.178
322.200, 0.158
322.300, 0.176
322.400, 0.185
322.500, 0.192
322.600, 0.174
322.700, 0.196
322.800, 0.204
322.900, 0.195
323.000, 0.189
323.100, 0.198
323.200, 0.208
323.300, 0.194
323.400, 0.200
323.500, 0.207
323.600, 0.205
323.700, 0.193
323.800, 0.199
323.900, 0.188
324.000, 0.191
324.100, 0.175
324.200, 0.204
324.300, 0.225
324.400, 0.197
324.500, 0.201
324.600, 0.206
324.700, 0.182
324.800, 0.191
324.900, 0.193
325.000, 0.171
325.100, 0.168
325.200, 0.178
325.300, 0.168
325.400, 0.164
325.500, 0.167
325.600, 0.171
325.700, 0.164
325.800, 0.164
325.900, 0.178
326.000, 0.183
326.100, 0.173
326.200, 0.192
326.300, 0.173
326.400, 0.171
326.500, 0.173
326.600, 0.169
326.700, 0.162
326.800, 0.172
326.900, 0.155
327.000, 0.169
327.100, 0.169
327.200, 0.155
327.300, 0.154
327.400, 0.179
327.500, 0.166
327.600, 0.165
327.700, 0.191
327.800, 0.165
327.900, 0.172
328.000, 0.174
328.100, 0.181
328.200, 0.171
328.300, 0.180
328.400, 0.191
328.500, 0.212
328.600, 0.190
328.700, 0.205
328.800, 0.221
328.900, 0.209
329.000, 0.220
329.100, 0.192
329.200, 0.189
329.300, 0.221
329.400, 0.184
329.500, 0.176
329.600, 0.187
329.700, 0.184
329.800, 0.191
329.900, 0.200
330.000, 0.194
330.100, 0.160
330.200, 0.167
330.300, 0.167
330.400, 0.191
330.500, 0.176
330.600, 0.157
330.700, 0.161
330.800, 0.165
330.900, 0.182
331.000, 0.204
331.100, 0.178
331.200, 0.180
331.300, 0.174
331.400, 0.182
331.500, 0.176
331.600, 0.192
331.700, 0.181
331.800, 0.192
331.900, 0.190
332.000, 0.173
332.100, 0.169
332.200, 0.200
332.300, 0.178
332.400, 0.200
332.500, 0.180
332.600, 0.222
332.700, 0.184
332.800, 0.172
332.900, 0.173
333.000, 0.206
333.100, 0.159
333.200, 0.173
333.300, 0.192
333.400, 0.194
333.500, 0.187
333.600, 0.186
333.700, 0.207
333.800, 0.204
333.900, 0.209
334.000, 0.203
334.100, 0.193
334.200, 0.189
334.300, 0.169
334.400, 0.166
334.500, 0.167
334.600, 0.173
334.700, 0.182
334.800, 0.195
334.900, 0.177
335.000, 0.171
335.100, 0.187
335.200, 0.163
335.300, 0.183
335.400, 0.174
335.500, 0.198
335.600, 0.178
335.700, 0.164
335.800, 0.172
335.900, 0.177
336.000, 0.176
336.100, 0.170
336.200, 0.161
336.300, 0.175
336.400, 0.191
336.500, 0.181
336.600, 0.188
336.700, 0.197
336.800, 0.186
336.900, 0.200
337.000, 0.166
337.100, 0.177
337.200, 0.175
337.300, 0.194
337.400, 0.188
337.500, 0.175
337.600, 0.181
337.700, 0.190
337.800, 0.167
337.900, 0.177
338.000, 0.184
338.100, 0.190
338.200, 0.197
338.300, 0.182
338.400, 0.186
338.500, 0.186
338.600, 0.185
338.700, 0.184
338.800, 0.186
338.900, 0.174
339.000, 0.158
339.100, 0.148
339.200, 0.165
339.300, 0.158
339.400, 0.160
339.500, 0.156
339.600, 0.155
339.700, 0.162
339.800, 0.164
339.900, 0.172
340.000, 0.161
340.100, 0.155
340.200, 0.170
340.300, 0.180
340.400, 0.153
340.500, 0.170
340.600, 0.178
340.700, 0.170
340.800, 0.181
340.900, 0.189
341.000, 0.188
341.100, 0.182
341.200, 0.185
341.300, 0.170
341.400, 0.170
341.500, 0.191
341.600, 0.171
341.700, 0.179
341.800, 0.186
341.900, 0.172
342.000, 0.176
342.100, 0.172
342.200, 0.167
342.300, 0.191
342.400, 0.185
342.500, 0.166
342.600, 0.166
342.700, 0.174
342.800, 0.183
342.900, 0.187
343.000, 0.186
343.100, 0.190
343.200, 0.193
343.300, 0.175
343.400, 0.159
343.500, 0.171
343.600, 0.184
343.700, 0.182
343.800, 0.174
343.900, 0.175
344.000, 0.164
344.100, 0.167
344.200, 0.185
344.300, 0.196
344.400, 0.181
344.500, 0.175
344.600, 0.173
344.700, 0.175
344.800, 0.176
344.900, 0.180
345.000, 0.190
345.100, 0.178
345.200, 0.175
345.300, 0.182
345.400, 0.162
345.500, 0.182
345.600, 0.161
345.700, 0.169
345.800, 0.177
345.900, 0.188
346.000, 0.171
346.100, 0.182
346.200, 0.165
346.300, 0.160
346.400, 0.164
346.500, 0.154
346.600, 0.160
346.700, 0.167
346.800, 0.179
346.900, 0.178
347.000, 0.175
347.100, 0.177
347.200, 0.204
347.300, 0.207
347.400, 0.194
347.500, 0.189
347.600, 0.177
347.700, 0.168
347.800, 0.178
347.900, 0.189
348.000, 0.179
348.100, 0.161
348.200, 0.195
348.300, 0.174
348.400, 0.188
348.500, 0.178
348.600, 0.193
348.700, 0.214
348.800, 0.190
348.900, 0.186
349.000, 0.190
349.100, 0.219
349.200, 0.230
349.300, 0.234
349.400, 0.196
349.500, 0.184
349.600, 0.184
349.700, 0.189
349.800, 0.180
349.900, 0.180
350.000, 0.165
350.100, 0.166
350.200, 0.168
350.300, 0.151
350.400, 0.181
350.500, 0.189
350.600, 0.182
350.700, 0.176
350.800, 0.192
350.900, 0.184
351.000, 0.188
351.100, 0.195
351.200, 0.200
351.300, 0.181
351.400, 0.190
351.500, 0.165
351.600, 0.181
351.700, 0.165
351.800, 0.161
351.900, 0.163
352.000, 0.158
352.100, 0.193
352.200, 0.179
352.300, 0.195
352.400, 0.182
352.500, 0.202
352.600, 0.174
352.700, 0.197
352.800, 0.198
352.900, 0.192
353.000, 0.196
353.100, 0.202
353.200, 0.230
353.300, 0.211
353.400, 0.237
353.500, 0.220
353.600, 0.195
353.700, 0.201
353.800, 0.188
353.900, 0.184
354.000, 0.183
354.100, 0.194
354.200, 0.221
354.300, 0.220
354.400, 0.212
354.500, 0.214
354.600, 0.209
354.700, 0.218
354.800, 0.201
354.900, 0.190
355.000, 0.206
355.100, 0.219
355.200, 0.211
355.300, 0.217
355.400, 0.213
355.500, 0.175
355.600, 0.175
355.700, 0.193
355.800, 0.182
355.900, 0.186
356.000, 0.189
356.100, 0.179
356.200, 0.174
356.300, 0.196
356.400, 0.181
356.500, 0.187
356.600, 0.172
356.700, 0.196
356.800, 0.187
356.900, 0.179
357.000, 0.168
357.100, 0.180
357.200, 0.171
357.300, 0.212
357.400, 0.187
357.500, 0.186
357.600, 0.165
357.700, 0.176
357.800, 0.159
357.900, 0.168
358.000, 0.156
358.100, 0.162
358.200, 0.186
358.300, 0.161
358.400, 0.165
358.500, 0.168
358.600, 0.157
358.700, 0.180
358.800, 0.176
358.900, 0.177
359.000, 0.204
359.100, 0.188
359.200, 0.178
359.300, 0.183
359.400, 0.192
359.500, 0.187
359.600, 0.203
359.700, 0.203
359.800, 0.194
359.900, 0.200
360.000, 0.201
360.100, 0.188
360.200, 0.188
360.300, 0.216
360.400, 0.201
360.500, 0.195
360.600, 0.191
360.700, 0.203
360.800, 0.206
360.900, 0.189
361.000, 0.188
361.100, 0.208
361.200, 0.189
361.300, 0.180
361.400, 0.183
361.500, 0.183
361.600, 0.185
361.700, 0.169
361.800, 0.154
361.900, 0.170
362.000, 0.194
362.100, 0.188
362.200, 0.207
362.300, 0.195
362.400, 0.190
362.500, 0.189
362.600, 0.200
362.700, 0.219
362.800, 0.218
362.900, 0.200
363.000, 0.197
363.100, 0.211
363.200, 0.202
363.300, 0.216
363.400, 0.200
363.500, 0.193
363.600, 0.190
363.700, 0.188
363.800, 0.184
363.900, 0.169
364.000, 0.170
364.100, 0.184
364.200, 0.174
364.300, 0.183
364.400, 0.175
364.500, 0.170
364.600, 0.195
364.700, 0.170
364.800, 0.174
364.900, 0.181
365.000, 0.186
365.100, 0.180
365.200, 0.221
365.300, 0.208
365.400, 0.198
365.500, 0.193
365.600, 0.203
365.700, 0.198
365.800, 0.203
365.900, 0.214
366.000, 0.199
366.100, 0.182
366.200, 0.194
366.300, 0.192
366.400, 0.183
366.500, 0.191
366.600, 0.163
366.700, 0.158
366.800, 0.162
366.900, 0.168
367.000, 0.161
367.100, 0.161
367.200, 0.187
367.300, 0.152
367.400, 0.148
367.500, 0.163
367.600, 0.152
367.700, 0.141
367.800, 0.162
367.900, 0.161
368.000, 0.163
368.100, 0.154
368.200, 0.168
368.300, 0.180
368.400, 0.179
368.500, 0.182
368.600, 0.173
368.700, 0.166
368.800, 0.180
368.900, 0.185
369.000, 0.179
369.100, 0.173
369.200, 0.174
369.300, 0.183
369.400, 0.170
369.500, 0.187
369.600, 0.191
369.700, 0.179
369.800, 0.185
369.900, 0.181
370.000, 0.181
370.100, 0.176
370.200, 0.191
370.300, 0.176
370.400, 0.182
370.500, 0.209
370.600, 0.197
370.700, 0.185
370.800, 0.194
370.900, 0.193
371.000, 0.187
371.100, 0.188
371.200, 0.187
371.300, 0.195
371.400, 0.204
371.500, 0.195
371.600, 0.203
371.700, 0.194
371.800, 0.191
371.900, 0.192
372.000, 0.187
372.100, 0.166
372.200, 0.182
372.300, 0.179
372.400, 0.179
372.500, 0.173
372.600, 0.178
372.700, 0.188
372.800, 0.193
372.900, 0.193
373.000, 0.187
373.100, 0.203
373.200, 0.211
373.300, 0.204
373.400, 0.211
373.500, 0.198
373.600, 0.198
373.700, 0.213
373.800, 0.198
373.900, 0.207
374.000, 0.221
374.100, 0.186
374.200, 0.206
374.300, 0.196
374.400, 0.192
374.500, 0.201
374.600, 0.193
374.700, 0.202
374.800, 0.199
374.900, 0.190
375.000, 0.190
375.100, 0.212
375.200, 0.210
375.300, 0.190
375.400, 0.175
375.500, 0.166
375.600, 0.184
375.700, 0.181
375.800, 0.174
375.900, 0.181
376.000, 0.164
376.100, 0.170
376.200, 0.169
376.300, 0.188
376.400, 0.190
376.500, 0.185
376.600, 0.194
376.700, 0.189
376.800, 0.176
376.900, 0.165
377.000, 0.165
377.100, 0.180
377.200, 0.175
377.300, 0.190
377.400, 0.170
377.500, 0.167
377.600, 0.155
377.700, 0.158
377.800, 0.160
377.900, 0.171
378.000, 0.167
378.100, 0.168
378.200, 0.175
378.300, 0.185
378.400, 0.188
378.500, 0.183
378.600, 0.185
378.700, 0.175
378.800, 0.183
378.900, 0.183
379.000, 0.187
379.100, 0.211
379.200, 0.199
379.300, 0.188
379.400, 0.186
379.500, 0.191
379.600, 0.187
379.700, 0.157
379.800, 0.179
379.900, 0.160
380.000, 0.168
380.100, 0.181
380.200, 0.172
380.300, 0.178
380.400, 0.166
380.500, 0.184
380.600, 0.178
380.700, 0.167
380.800, 0.175
380.900, 0.172
381.000, 0.180
381.100, 0.177
381.200, 0.183
381.300, 0.224
381.400, 0.185
381.500, 0.190
381.600, 0.197
381.700, 0.211
381.800, 0.226
381.900, 0.213
382.000, 0.228
382.100, 0.211
382.200, 0.196
382.300, 0.197
382.400, 0.188
382.500, 0.225
382.600, 0.222
382.700, 0.202
382.800, 0.214
382.900, 0.222
383.000, 0.209
383.100, 0.218
383.200, 0.196
383.300, 0.210
383.400, 0.201
383.500, 0.209
383.600, 0.212
383.700, 0.196
383.800, 0.204
383.900, 0.168
384.000, 0.183
384.100, 0.174
384.200, 0.187
384.300, 0.191
384.400, 0.187
384.500, 0.178
384.600, 0.182
384.700, 0.188
384.800, 0.173
384.900, 0.196
385.000, 0.187
385.100, 0.194
385.200, 0.184
385.300, 0.201
385.400, 0.196
385.500, 0.186
385.600, 0.155
385.700, 0.184
385.800, 0.151
385.900, 0.174
386.000, 0.173
386.100, 0.195
386.200, 0.177
386.300, 0.196
386.400, 0.196
386.500, 0.208
386.600, 0.230
386.700, 0.236
386.800, 0.228
386.900, 0.208
387.000, 0.213
387.100, 0.203
387.200, 0.194
387.300, 0.208
387.400, 0.188
387.500, 0.179
387.600, 0.231
387.700, 0.194
387.800, 0.181
387.900, 0.194
388.000, 0.193
388.100, 0.206
388.200, 0.203
388.300, 0.199
388.400, 0.179
388.500, 0.189
388.600, 0.176
388.700, 0.168
388.800, 0.171
388.900, 0.192
389.000, 0.188
389.100, 0.186
389.200, 0.192
389.300, 0.163
389.400, 0.190
389.500, 0.202
389.600, 0.203
389.700, 0.191
389.800, 0.187
389.900, 0.179
390.000, 0.197
390.100, 0.168
390.200, 0.182
390.300, 0.166
390.400, 0.183
390.500, 0.193
390.600, 0.202
390.700, 0.174
390.800, 0.177
390.900, 0.200
391.000, 0.197
391.100, 0.205
391.200, 0.204
391.300, 0.227
391.400, 0.222
391.500, 0.217
391.600, 0.194
391.700, 0.203
391.800, 0.191
391.900, 0.190
392.000, 0.194
392.100, 0.193
392.200, 0.198
392.300, 0.196
392.400, 0.212
392.500, 0.178
392.600, 0.192
392.700, 0.191
392.800, 0.199
392.900, 0.194
393.000, 0.200
393.100, 0.187
393.200, 0.207
393.300, 0.198
393.400, 0.211
393.500, 0.204
393.600, 0.206
393.700, 0.215
393.800, 0.190
393.900, 0.213
394.000, 0.201
394.100, 0.190
394.200, 0.192
394.300, 0.204
394.400, 0.190
394.500, 0.209
394.600, 0.201
394.700, 0.194
394.800, 0.192
394.900, 0.222
395.000, 0.209
395.100, 0.223
395.200, 0.223
395.300, 0.214
395.400, 0.210
395.500, 0.213
395.600, 0.230
395.700, 0.218
395.800, 0.203
395.900, 0.206
396.000, 0.220
396.100, 0.214
396.200, 0.203
396.300, 0.191
396.400, 0.213
396.500, 0.217
396.600, 0.177
396.700, 0.166
396.800, 0.181
396.900, 0.176
397.000, 0.184
397.100, 0.193
397.200, 0.182
397.300, 0.189
397.400, 0.179
397.500, 0.179
397.600, 0.199
397.700, 0.222
397.800, 0.184
397.900, 0.194
398.000, 0.188
398.100, 0.207
398.200, 0.198
398.300, 0.191
398.400, 0.190
398.500, 0.191
398.600, 0.201
398.700, 0.217
398.800, 0.221
398.900, 0.224
399.000, 0.212
399.100, 0.195
399.200, 0.207
399.300, 0.195
399.400, 0.181
399.500, 0.167
399.600, 0.178
399.700, 0.192
399.800, 0.180
399.900, 0.178
400.000, 0.199
400.100, 0.189
400.200, 0.203
400.300, 0.190
400.400, 0.202
400.500, 0.183
400.600, 0.184
400.700, 0.187
400.800, 0.202
400.900, 0.218
401.000, 0.223
401.100, 0.208
401.200, 0.202
401.300, 0.191
401.400, 0.227
401.500, 0.194
401.600, 0.179
401.700, 0.195
401.800, 0.209
401.900, 0.217
402.000, 0.197
402.100, 0.212
402.200, 0.203
402.300, 0.209
402.400, 0.240
402.500, 0.261
402.600, 0.235
402.700, 0.230
402.800, 0.240
402.900, 0.230
403.000, 0.224
403.100, 0.220
403.200, 0.251
403.300, 0.233
403.400, 0.219
403.500, 0.225
403.600, 0.223
403.700, 0.206
403.800, 0.218
403.900, 0.245
404.000, 0.263
404.100, 0.238
404.200, 0.224
404.300, 0.256
404.400, 0.224
404.500, 0.222
404.600, 0.260
404.700, 0.228
404.800, 0.209
404.900, 0.213
405.000, 0.224
405.100, 0.194
405.200, 0.248
405.300, 0.219
405.400, 0.201
405.500, 0.177
405.600, 0.194
405.700, 0.206
405.800, 0.217
405.900, 0.203
406.000, 0.209
406.100, 0.215
406.200, 0.191
406.300, 0.199
406.400, 0.206
406.500, 0.198
406.600, 0.166
406.700, 0.177
406.800, 0.182
406.900, 0.174
407.000, 0.182
407.100, 0.209
407.200, 0.169
407.300, 0.183
407.400, 0.176
407.500, 0.200
407.600, 0.166
407.700, 0.200
407.800, 0.211
407.900, 0.207
408.000, 0.219
408.100, 0.184
408.200, 0.180
408.300, 0.171
408.400, 0.180
408.500, 0.200
408.600, 0.186
408.700, 0.184
408.800, 0.186
408.900, 0.187
409.000, 0.188
409.100, 0.208
409.200, 0.210
409.300, 0.187
409.400, 0.212
409.500, 0.209
409.600, 0.195
409.700, 0.207
409.800, 0.198
409.900, 0.170
410.000, 0.170
410.100, 0.174
410.200, 0.173
410.300, 0.179
410.400, 0.190
410.500, 0.181
410.600, 0.221
410.700, 0.208
410.800, 0.208
410.900, 0.204
411.000, 0.180
411.100, 0.200
411.200, 0.209
411.300, 0.210
411.400, 0.219
411.500, 0.211
411.600, 0.196
411.700, 0.208
411.800, 0.198
411.900, 0.214
412.000, 0.210
412.100, 0.193
412.200, 0.197
412.300, 0.226
412.400, 0.201
412.500, 0.209
412.600, 0.202
412.700, 0.184
412.800, 0.196
412.900, 0.176
413.000, 0.190
413.100, 0.205
413.200, 0.176
413.300, 0.172
413.400, 0.190
413.500, 0.210
413.600, 0.227
413.700, 0.210
413.800, 0.191
413.900, 0.210
414.000, 0.193
414.100, 0.196
414.200, 0.212
414.300, 0.208
414.400, 0.182
414.500, 0.185
414.600, 0.184
414.700, 0.189
414.800, 0.183
414.900, 0.178
415.000, 0.189
415.100, 0.181
415.200, 0.176
415.300, 0.183
415.400, 0.169
415.500, 0.195
415.600, 0.171
415.700, 0.190
415.800, 0.184
415.900, 0.167
416.000, 0.162
416.100, 0.201
416.200, 0.176
416.300, 0.184
416.400, 0.192
416.500, 0.175
416.600, 0.192
416.700, 0.198
416.800, 0.184
416.900, 0.164
417.000, 0.179
417.100, 0.171
417.200, 0.189
417.300, 0.181
417.400, 0.179
417.500, 0.188
417.600, 0.189
417.700, 0.185
417.800, 0.185
417.900, 0.181
418.000, 0.184
418.100, 0.165
418.200, 0.175
418.300, 0.173
418.400, 0.175
418.500, 0.199
418.600, 0.160
418.700, 0.163
418.800, 0.162
418.900, 0.159
419.000, 0.175
419.100, 0.163
419.200, 0.169
419.300, 0.157
419.400, 0.182
419.500, 0.152
419.600, 0.154
419.700, 0.158
419.800, 0.167
419.900, 0.155
420.000, 0.172
420.100, 0.156
420.200, 0.161
420.300, 0.156
420.400, 0.181
420.500, 0.178
420.600, 0.176
420.700, 0.190
420.800, 0.188
420.900, 0.153
421.000, 0.172
421.100, 0.168
421.200, 0.164
421.300, 0.165
421.400, 0.176
421.500, 0.180
421.600, 0.157
421.700, 0.174
421.800, 0.164
421.900, 0.179
422.000, 0.168
422.100, 0.179
422.200, 0.177
422.300, 0.164
422.400, 0.176
422.500, 0.182
422.600, 0.169
422.700, 0.175
422.800, 0.176
422.900, 0.183
423.000, 0.168
423.100, 0.175
423.200, 0.184
423.300, 0.187
423.400, 0.167
423.500, 0.192
423.600, 0.183
423.700, 0.197
423.800, 0.174
423.900, 0.184
424.000, 0.192
424.100, 0.192
424.200, 0.175
424.300, 0.182
424.400, 0.208
424.500, 0.195
424.600, 0.190
424.700, 0.180
424.800, 0.168
424.900, 0.174
425.000, 0.181
425.100, 0.170
425.200, 0.196
425.300, 0.186
425.400, 0.181
425.500, 0.179
425.600, 0.196
425.700, 0.179
425.800, 0.183
425.900, 0.189
426.000, 0.182
426.100, 0.183
426.200, 0.178
426.300, 0.176
426.400, 0.178
426.500, 0.189
426.600, 0.179
426.700, 0.190
426.800, 0.197
426.900, 0.216
427.000, 0.207
427.100, 0.205
427.200, 0.198
427.300, 0.177
427.400, 0.167
427.500, 0.177
427.600, 0.174
427.700, 0.167
427.800, 0.175
427.900, 0.178
428.000, 0.176
428.100, 0.163
428.200, 0.155
428.300, 0.156
428.400, 0.168
428.500, 0.164
428.600, 0.175
428.700, 0.164
428.800, 0.178
428.900, 0.164
429.000, 0.174
429.100, 0.174
429.200, 0.171
429.300, 0.172
429.400, 0.159
429.500, 0.173
429.600, 0.169
429.700, 0.180
429.800, 0.181
429.900, 0.189
430.000, 0.197
430.100, 0.182
430.200, 0.177
430.300, 0.185
430.400, 0.181
430.500, 0.179
430.600, 0.197
430.700, 0.198
430.800, 0.202
430.900, 0.201
431.000, 0.183
431.100, 0.174
431.200, 0.176
431.300, 0.180
431.400, 0.184
431.500, 0.171
431.600, 0.175
431.700, 0.174
431.800, 0.177
431.900, 0.163
432.000, 0.189
432.100, 0.188
432.200, 0.176
432.300, 0.185
432.400, 0.195
432.500, 0.191
432.600, 0.188
432.700, 0.190
432.800, 0.198
432.900, 0.178
433.000, 0.169
433.100, 0.157
433.200, 0.157
433.300, 0.156
433.400, 0.171
433.500, 0.181
433.600, 0.179
433.700, 0.159
433.800, 0.171
433.900, 0.174
434.000, 0.171
434.100, 0.199
434.200, 0.162
434.300, 0.169
434.400, 0.166
434.500, 0.164
434.600, 0.163
434.700, 0.162
434.800, 0.163
434.900, 0.183
435.000, 0.179
435.100, 0.161
435.200, 0.156
435.300, 0.152
435.400, 0.155
435.500, 0.142
435.600, 0.146
435.700, 0.152
435.800, 0.154
435.900, 0.149
436.000, 0.150
436.100, 0.160
436.200, 0.154
436.300, 0.158
436.400, 0.147
436.500, 0.143
436.600, 0.141
436.700, 0.157
436.800, 0.155
436.900, 0.147
437.000, 0.161
437.100, 0.172
437.200, 0.163
437.300, 0.155
437.400, 0.165
437.500, 0.157
437.600, 0.145
437.700, 0.180
437.800, 0.198
437.900, 0.217
438.000, 0.196
438.100, 0.185
438.200, 0.178
438.300, 0.189
438.400, 0.189
438.500, 0.171
438.600, 0.168
438.700, 0.169
438.800, 0.184
438.900, 0.204
439.000, 0.198
439.100, 0.181
439.200, 0.186
439.300, 0.190
439.400, 0.183
439.500, 0.200
439.600, 0.174
439.700, 0.171
439.800, 0.182
439.900, 0.181
440.000, 0.193
440.100, 0.183
440.200, 0.175
440.300, 0.179
440.400, 0.190
440.500, 0.190
440.600, 0.177
440.700, 0.173
440.800, 0.176
440.900, 0.173
441.000, 0.181
441.100, 0.163
441.200, 0.168
441.300, 0.166
441.400, 0.176
441.500, 0.179
441.600, 0.189
441.700, 0.178
441.800, 0.173
441.900, 0.170
442.000, 0.176
442.100, 0.158
442.200, 0.163
442.300, 0.161
442.400, 0.151
442.500, 0.159
442.600, 0.158
442.700, 0.175
442.800, 0.181
442.900, 0.197
443.000, 0.180
443.100, 0.174
443.200, 0.176
443.300, 0.184
443.400, 0.183
443.500, 0.174
443.600, 0.165
443.700, 0.162
443.800, 0.163
443.900, 0.164
444.000, 0.151
444.100, 0.164
444.200, 0.180
444.300, 0.188
444.400, 0.176
444.500, 0.178
444.600, 0.181
444.700, 0.175
444.800, 0.169
444.900, 0.165
445.000, 0.163
445.100, 0.166
445.200, 0.181
445.300, 0.158
445.400, 0.169
445.500, 0.179
445.600, 0.199
445.700, 0.200
445.800, 0.197
445.900, 0.183
446.000, 0.175
446.100, 0.171
446.200, 0.145
446.300, 0.156
446.400, 0.183
446.500, 0.176
446.600, 0.191
446.700, 0.166
446.800, 0.149
446.900, 0.152
447.000, 0.146
447.100, 0.153
447.200, 0.145
447.300, 0.171
447.400, 0.153
447.500, 0.159
447.600, 0.150
447.700, 0.147
447.800, 0.161
447.900, 0.146
448.000, 0.134
448.100, 0.137
448.200, 0.150
448.300, 0.171
448.400, 0.210
448.500, 0.209
448.600, 0.223
448.700, 0.207
448.800, 0.199
448.900, 0.173
449.000, 0.168
449.100, 0.173
449.200, 0.157
449.300, 0.165
449.400, 0.146
449.500, 0.158
449.600, 0.150
449.700, 0.138
449.800, 0.159
449.900, 0.148
450.000, 0.122
450.100, 0.172
450.200, 0.160
450.300, 0.150
450.400, 0.138
450.500, 0.134
450.600, 0.149
450.700, 0.168
450.800, 0.151
450.900, 0.172
451.000, 0.178
451.100, 0.165
451.200, 0.208
451.300, 0.177
451.400, 0.186
451.500, 0.184
451.600, 0.178
451.700, 0.195
451.800, 0.194
451.900, 0.200
452.000, 0.192
452.100, 0.186
452.200, 0.197
452.300, 0.183
452.400, 0.190
452.500, 0.179
452.600, 0.172
452.700, 0.177
452.800, 0.167
452.900, 0.163
453.000, 0.170
453.100, 0.157
453.200, 0.165
453.300, 0.156
453.400, 0.139
453.500, 0.155
453.600, 0.202
453.700, 0.181
453.800, 0.182
453.900, 0.169
454.000, 0.184
454.100, 0.146
454.200, 0.174
454.300, 0.172
454.400, 0.226
454.500, 0.178
454.600, 0.159
454.700, 0.141
454.800, 0.150
454.900, 0.136
455.000, 0.125
455.100, 0.149
455.200, 0.140
455.300, 0.146
455.400, 0.151
455.500, 0.159
455.600, 0.152
455.700, 0.146
455.800, 0.131
455.900, 0.127
456.000, 0.145
456.100, 0.132
456.200, 0.126
456.300, 0.124
456.400, 0.153
456.500, 0.149
456.600, 0.148
456.700, 0.151
456.800, 0.150
456.900, 0.156
457.000, 0.164
457.100, 0.163
457.200, 0.180
457.300, 0.168
457.400, 0.152
457.500, 0.159
457.600, 0.159
457.700, 0.141
457.800, 0.167
457.900, 0.141
458.000, 0.145
458.100, 0.150
458.200, 0.166
458.300, 0.145
458.400, 0.125
458.500, 0.138
458.600, 0.141
458.700, 0.136
458.800, 0.129
458.900, 0.147
459.000, 0.147
459.100, 0.148
459.200, 0.141
459.300, 0.137
459.400, 0.135
459.500, 0.149
459.600, 0.148
459.700, 0.152
459.800, 0.130
459.900, 0.143
460.000, 0.146
460.100, 0.126
460.200, 0.145
460.300, 0.142
460.400, 0.156
460.500, 0.141
460.600, 0.127
460.700, 0.138
460.800, 0.143
460.900, 0.149
461.000, 0.185
461.100, 0.176
461.200, 0.207
461.300, 0.176
461.400, 0.183
461.500, 0.143
461.600, 0.147
461.700, 0.156
461.800, 0.148
461.900, 0.138
462.000, 0.137
462.100, 0.159
462.200, 0.153
462.300, 0.158
462.400, 0.141
462.500, 0.136
462.600, 0.135
462.700, 0.141
462.800, 0.148
462.900, 0.155
463.000, 0.155
463.100, 0.148
463.200, 0.152
463.300, 0.146
463.400, 0.163
463.500, 0.209
463.600, 0.195
463.700, 0.187
463.800, 0.187
463.900, 0.190
464.000, 0.172
464.100, 0.181
464.200, 0.188
464.300, 0.204
464.400, 0.180
464.500, 0.205
464.600, 0.198
464.700, 0.195
464.800, 0.183
464.900, 0.175
465.000, 0.178
465.100, 0.169
465.200, 0.167
465.300, 0.177
465.400, 0.177
465.500, 0.188
465.600, 0.175
465.700, 0.199
465.800, 0.193
465.900, 0.217
466.000, 0.206
466.100, 0.185
466.200, 0.201
466.300, 0.194
466.400, 0.150
466.500, 0.160
466.600, 0.171
466.700, 0.154
466.800, 0.158
466.900, 0.140
467.000, 0.152
467.100, 0.165
467.200, 0.164
467.300, 0.140
467.400, 0.163
467.500, 0.172
467.600, 0.172
467.700, 0.177
467.800, 0.149
467.900, 0.152
468.000, 0.174
468.100, 0.168
468.200, 0.151
468.300, 0.163
468.400, 0.148
468.500, 0.157
468.600, 0.167
468.700, 0.157
468.800, 0.171
468.900, 0.151
469.000, 0.158
469.100, 0.155
469.200, 0.166
469.300, 0.161
469.400, 0.166
469.500, 0.178
469.600, 0.183
469.700, 0.164
469.800, 0.222
469.900, 0.194
470.000, 0.180
470.100, 0.198
470.200, 0.210
470.300, 0.183
470.400, 0.208
470.500, 0.197
470.600, 0.190
470.700, 0.183
470.800, 0.182
470.900, 0.181
471.000, 0.202
471.100, 0.176
471.200, 0.176
471.300, 0.185
471.400, 0.206
471.500, 0.176
471.600, 0.161
471.700, 0.148
471.800, 0.151
471.900, 0.163
472.000, 0.158
472.100, 0.157
472.200, 0.146
472.300, 0.162
472.400, 0.158
472.500, 0.145
472.600, 0.148
472.700, 0.164
472.800, 0.163
472.900, 0.159
473.000, 0.144
473.100, 0.134
473.200, 0.142
473.300, 0.143
473.400, 0.146
473.500, 0.156
473.600, 0.149
473.700, 0.159
473.800, 0.149
473.900, 0.145
474.000, 0.160
474.100, 0.160
474.200, 0.178
474.300, 0.134
474.400, 0.127
474.500, 0.133
474.600, 0.148
474.700, 0.138
474.800, 0.139
474.900, 0.149
475.000, 0.175
475.100, 0.176
475.200, 0.185
475.300, 0.173
475.400, 0.173
475.500, 0.166
475.600, 0.152
475.700, 0.170
475.800, 0.160
475.900, 0.159
476.000, 0.156
476.100, 0.163
476.200, 0.145
476.300, 0.150
476.400, 0.166
476.500, 0.163
476.600, 0.155
476.700, 0.149
476.800, 0.161
476.900, 0.141
477.000, 0.137
477.100, 0.140
477.200, 0.146
477.300, 0.144
477.400, 0.147
477.500, 0.151
477.600, 0.158
477.700, 0.151
477.800, 0.145
477.900, 0.145
478.000, 0.164
478.100, 0.140
478.200, 0.142
478.300, 0.142
478.400, 0.146
478.500, 0.146
478.600, 0.147
478.700, 0.148
478.800, 0.140
478.900, 0.139
479.000, 0.134
479.100, 0.140
479.200, 0.133
479.300, 0.144
479.400, 0.147
479.500, 0.135
479.600, 0.126
479.700, 0.139
479.800, 0.132
479.900, 0.143
480.000, 0.127
480.100, 0.133
480.200, 0.139
480.300, 0.156
480.400, 0.149
480.500, 0.156
480.600, 0.145
480.700, 0.156
480.800, 0.135
480.900, 0.146
481.000, 0.148
481.100, 0.158
481.200, 0.159
481.300, 0.150
481.400, 0.142
481.500, 0.132
481.600, 0.144
481.700, 0.143
481.800, 0.131
481.900, 0.145
482.000, 0.160
482.100, 0.141
482.200, 0.136
482.300, 0.135
482.400, 0.144
482.500, 0.154
482.600, 0.147
482.700, 0.154
482.800, 0.126
482.900, 0.130
483.000, 0.161
483.100, 0.142
483.200, 0.146
483.300, 0.151
483.400, 0.144
483.500, 0.145
483.600, 0.153
483.700, 0.151
483.800, 0.147
483.900, 0.135
484.000, 0.160
484.100, 0.151
484.200, 0.152
484.300, 0.143
484.400, 0.151
484.500, 0.162
484.600, 0.148
484.700, 0.130
484.800, 0.141
484.900, 0.145
485.000, 0.163
485.100, 0.178
485.200, 0.162
485.300, 0.156
485.400, 0.145
485.500, 0.138
485.600, 0.151
485.700, 0.145
485.800, 0.142
485.900, 0.150
486.000, 0.152
486.100, 0.163
486.200, 0.135
486.300, 0.166
486.400, 0.158
486.500, 0.171
486.600, 0.165
486.700, 0.147
486.800, 0.153
486.900, 0.156
487.000, 0.166
487.100, 0.158
487.200, 0.146
487.300, 0.139
487.400, 0.153
487.500, 0.153
487.600, 0.150
487.700, 0.153
487.800, 0.159
487.900, 0.155
488.000, 0.150
488.100, 0.157
488.200, 0.145
488.300, 0.159
488.400, 0.152
488.500, 0.153
488.600, 0.151
488.700, 0.145
488.800, 0.143
488.900, 0.165
489.000, 0.165
489.100, 0.161
489.200, 0.160
489.300, 0.171
489.400, 0.163
489.500, 0.156
489.600, 0.161
489.700, 0.163
489.800, 0.159
489.900, 0.142
490.000, 0.141
490.100, 0.148
490.200, 0.166
490.300, 0.169
490.400, 0.173
490.500, 0.149
490.600, 0.188
490.700, 0.174
490.800, 0.143
490.900, 0.154
491.000, 0.152
491.100, 0.143
491.200, 0.156
491.300, 0.163
491.400, 0.193
491.500, 0.158
491.600, 0.145
491.700, 0.137
491.800, 0.126
491.900, 0.140
492.000, 0.140
492.100, 0.151
492.200, 0.143
492.300, 0.149
492.400, 0.146
492.500, 0.141
492.600, 0.146
492.700, 0.145
492.800, 0.157
492.900, 0.160
493.000, 0.165
493.100, 0.182
493.200, 0.153
493.300, 0.156
493.400, 0.155
493.500, 0.147
493.600, 0.163
493.700, 0.157
493.800, 0.143
493.900, 0.136
494.000, 0.147
494.100, 0.137
494.200, 0.137
494.300, 0.144
494.400, 0.148
494.500, 0.147
494.600, 0.156
494.700, 0.172
494.800, 0.180
494.900, 0.189
495.000, 0.162
495.100, 0.175
495.200, 0.189
495.300, 0.205
495.400, 0.228
495.500, 0.200
495.600, 0.194
495.700, 0.179
495.800, 0.190
495.900, 0.170
496.000, 0.180
496.100, 0.166
496.200, 0.187
496.300, 0.229
496.400, 0.192
496.500, 0.194
496.600, 0.187
496.700, 0.181
496.800, 0.162
496.900, 0.170
497.000, 0.162
497.100, 0.161
497.200, 0.155
497.300, 0.183
497.400, 0.182
497.500, 0.165
497.600, 0.175
497.700, 0.162
497.800, 0.155
497.900, 0.200
498.000, 0.193
498.100, 0.230
498.200, 0.211
498.300, 0.172
498.400, 0.149
498.500, 0.142
498.600, 0.164
498.700, 0.180
498.800, 0.193
498.900, 0.199
499.000, 0.202
499.100, 0.190
499.200, 0.181
499.300, 0.148
499.400, 0.164
499.500, 0.147
499.600, 0.176
499.700, 0.198
499.800, 0.178
499.900, 0.175
500.000, 0.153
500.100, 0.162
500.200, 0.162
500.300, 0.161
500.400, 0.180
500.500, 0.162
500.600, 0.164
500.700, 0.200
500.800, 0.195
500.900, 0.188
501.000, 0.168
501.100, 0.174
501.200, 0.173
501.300, 0.167
501.400, 0.168
501.500, 0.165
501.600, 0.176
501.700, 0.149
501.800, 0.154
501.900, 0.157
502.000, 0.146
502.100, 0.161
502.200, 0.137
502.300, 0.151
502.400, 0.138
502.500, 0.164
502.600, 0.158
502.700, 0.158
502.800, 0.168
502.900, 0.139
503.000, 0.145
503.100, 0.166
503.200, 0.170
503.300, 0.169
503.400, 0.167
503.500, 0.198
503.600, 0.211
503.700, 0.178
503.800, 0.163
503.900, 0.173
504.000, 0.186
504.100, 0.202
504.200, 0.187
504.300, 0.153
504.400, 0.166
504.500, 0.188
504.600, 0.232
504.700, 0.194
504.800, 0.209
504.900, 0.234
505.000, 0.220
505.100, 0.218
505.200, 0.195
505.300, 0.171
505.400, 0.188
505.500, 0.218
505.600, 0.201
505.700, 0.196
505.800, 0.171
505.900, 0.176
506.000, 0.151
506.100, 0.174
506.200, 0.171
506.300, 0.166
506.400, 0.176
506.500, 0.183
506.600, 0.166
506.700, 0.185
506.800, 0.168
506.900, 0.161
507.000, 0.157
507.100, 0.171
507.200, 0.163
507.300, 0.164
507.400, 0.169
507.500, 0.166
507.600, 0.157
507.700, 0.153
507.800, 0.148
507.900, 0.149
508.000, 0.149
508.100, 0.142
508.200, 0.140
508.300, 0.148
508.400, 0.148
508.500, 0.137
508.600, 0.145
508.700, 0.156
508.800, 0.167
508.900, 0.156
509.000, 0.141
509.100, 0.136
509.200, 0.140
509.300, 0.154
509.400, 0.141
509.500, 0.135
509.600, 0.140
509.700, 0.143
509.800, 0.143
509.900, 0.141
510.000, 0.134
510.100, 0.145
510.200, 0.145
510.300, 0.138
510.400, 0.161
510.500, 0.151
510.600, 0.145
510.700, 0.155
510.800, 0.156
510.900, 0.164
511.000, 0.136
511.100, 0.137
511.200, 0.136
511.300, 0.133
511.400, 0.133
511.500, 0.165
511.600, 0.173
511.700, 0.158
511.800, 0.180
511.900, 0.150
512.000, 0.152
512.100, 0.141
512.200, 0.156
512.300, 0.165
512.400, 0.150
512.500, 0.146
512.600, 0.158
512.700, 0.158
512.800, 0.142
512.900, 0.176
513.000, 0.175
513.100, 0.177
513.200, 0.165
513.300, 0.166
513.400, 0.155
513.500, 0.168
513.600, 0.156
513.700, 0.164
513.800, 0.173
513.900, 0.175
514.000, 0.177
514.100, 0.189
514.200, 0.181
514.300, 0.168
514.400, 0.178
514.500, 0.166
514.600, 0.160
514.700, 0.155
514.800, 0.176
514.900, 0.168
515.000, 0.165
515.100, 0.175
515.200, 0.159
515.300, 0.165
515.400, 0.155
515.500, 0.169
515.600, 0.157
515.700, 0.163
515.800, 0.151
515.900, 0.165
516.000, 0.170
516.100, 0.175
516.200, 0.154
516.300, 0.178
516.400, 0.169
516.500, 0.165
516.600, 0.166
516.700, 0.179
516.800, 0.158
516.900, 0.165
517.000, 0.164
517.100, 0.158
517.200, 0.159
517.300, 0.159
517.400, 0.161
517.500, 0.151
517.600, 0.173
517.700, 0.159
517.800, 0.165
517.900, 0.171
518.000, 0.176
518.100, 0.153
518.200, 0.156
518.300, 0.168
518.400, 0.161
518.500, 0.160
518.600, 0.154
518.700, 0.158
518.800, 0.153
518.900, 0.149
519.000, 0.150
519.100, 0.154
519.200, 0.152
519.300, 0.153
519.400, 0.169
519.500, 0.164
519.600, 0.163
519.700, 0.178
519.800, 0.183
519.900, 0.171
520.000, 0.170
520.100, 0.173
520.200, 0.172
520.300, 0.172
520.400, 0.141
520.500, 0.168
520.600, 0.173
520.700, 0.169
520.800, 0.165
520.900, 0.166
521.000, 0.159
521.100, 0.194
521.200, 0.181
521.300, 0.183
521.400, 0.216
521.500, 0.236
521.600, 0.240
521.700, 0.196
521.800, 0.191
521.900, 0.203
522.000, 0.206
522.100, 0.221
522.200, 0.200
522.300, 0.171
522.400, 0.182
522.500, 0.191
522.600, 0.185
522.700, 0.191
522.800, 0.188
522.900, 0.175
523.000, 0.159
523.100, 0.197
523.200, 0.189
523.300, 0.187
523.400, 0.176
523.500, 0.184
523.600, 0.167
523.700, 0.163
523.800, 0.164
523.900, 0.185
524.000, 0.170
524.100, 0.176
524.200, 0.181
524.300, 0.175
524.400, 0.175
524.500, 0.167
524.600, 0.178
524.700, 0.172
524.800, 0.194
524.900, 0.166
525.000, 0.155
525.100, 0.160
525.200, 0.158
525.300, 0.150
525.400, 0.162
525.500, 0.164
525.600, 0.170
525.700, 0.176
525.800, 0.210
525.900, 0.212
526.000, 0.202
526.100, 0.173
526.200, 0.172
526.300, 0.152
526.400, 0.164
526.500, 0.195
526.600, 0.179
526.700, 0.170
526.800, 0.165
526.900, 0.185
527.000, 0.186
527.100, 0.196
527.200, 0.185
527.300, 0.182
527.400, 0.175
527.500, 0.165
527.600, 0.168
527.700, 0.180
527.800, 0.152
527.900, 0.155
528.000, 0.147
528.100, 0.164
528.200, 0.161
528.300, 0.145
528.400, 0.157
528.500, 0.164
528.600, 0.153
528.700, 0.153
528.800, 0.154
528.900, 0.149
529.000, 0.149
529.100, 0.162
529.200, 0.152
529.300, 0.160
529.400, 0.166
529.500, 0.160
529.600, 0.178
529.700, 0.161
529.800, 0.172
529.900, 0.165
530.000, 0.182
530.100, 0.183
530.200, 0.156
530.300, 0.155
530.400, 0.158
530.500, 0.175
530.600, 0.200
530.700, 0.165
530.800, 0.172
530.900, 0.172
531.000, 0.180
531.100, 0.181
531.200, 0.181
531.300, 0.162
531.400, 0.169
531.500, 0.178
531.600, 0.164
531.700, 0.149
531.800, 0.163
531.900, 0.169
532.000, 0.172
532.100, 0.186
532.200, 0.179
532.300, 0.182
532.400, 0.178
532.500, 0.166
532.600, 0.178
532.700, 0.186
532.800, 0.164
532.900, 0.168
533.000, 0.177
533.100, 0.199
533.200, 0.180
533.300, 0.184
533.400, 0.190
533.500, 0.201
533.600, 0.210
533.700, 0.223
533.800, 0.201
533.900, 0.176
534.000, 0.196
534.100, 0.185
534.200, 0.203
534.300, 0.211
534.400, 0.196
534.500, 0.168
534.600, 0.189
534.700, 0.203
534.800, 0.196
534.900, 0.170
535.000, 0.148
535.100, 0.152
535.200, 0.159
535.300, 0.162
535.400, 0.183
535.500, 0.177
535.600, 0.146
535.700, 0.131
535.800, 0.144
535.900, 0.165
536.000, 0.143
536.100, 0.139
536.200, 0.149
536.300, 0.177
536.400, 0.149
536.500, 0.140
536.600, 0.143
536.700, 0.131
536.800, 0.145
536.900, 0.149
537.000, 0.158
537.100, 0.163
537.200, 0.143
537.300, 0.149
537.400, 0.151
537.500, 0.176
537.600, 0.146
537.700, 0.156
537.800, 0.144
537.900, 0.170
538.000, 0.165
538.100, 0.187
538.200, 0.184
538.300, 0.182
538.400, 0.168
538.500, 0.174
538.600, 0.152
538.700, 0.169
538.800, 0.172
538.900, 0.167
539.000, 0.163
539.100, 0.190
539.200, 0.176
539.300, 0.198
539.400, 0.209
539.500, 0.207
539.600, 0.185
539.700, 0.178
539.800, 0.179
539.900, 0.159
540.000, 0.146
540.100, 0.156
540.200, 0.128
540.300, 0.145
540.400, 0.159
540.500, 0.156
540.600, 0.147
540.700, 0.140
540.800, 0.164
540.900, 0.152
541.000, 0.177
541.100, 0.165
541.200, 0.142
541.300, 0.146
541.400, 0.160
541.500, 0.138
541.600, 0.144
541.700, 0.155
541.800, 0.145
541.900, 0.139
542.000, 0.142
542.100, 0.178
542.200, 0.186
542.300, 0.172
542.400, 0.153
542.500, 0.146
542.600, 0.128
542.700, 0.136
542.800, 0.149
542.900, 0.122
543.000, 0.149
543.100, 0.144
543.200, 0.131
543.300, 0.136
543.400, 0.122
543.500, 0.130
543.600, 0.130
543.700, 0.132
543.800, 0.154
543.900, 0.141
544.000, 0.135
544.100, 0.166
544.200, 0.159
544.300, 0.170
544.400, 0.159
544.500, 0.156
544.600, 0.162
544.700, 0.164
544.800, 0.156
544.900, 0.155
545.000, 0.192
545.100, 0.158
545.200, 0.141
545.300, 0.184
545.400, 0.175
545.500, 0.163
545.600, 0.178
545.700, 0.201
545.800, 0.151
545.900, 0.154
546.000, 0.151
546.100, 0.161
546.200, 0.149
546.300, 0.150
546.400, 0.143
546.500, 0.150
546.600, 0.146
546.700, 0.154
546.800, 0.163
546.900, 0.153
547.000, 0.147
547.100, 0.139
547.200, 0.151
547.300, 0.151
547.400, 0.163
547.500, 0.146
547.600, 0.145
547.700, 0.159
547.800, 0.158
547.900, 0.136
548.000, 0.138
548.100, 0.121
548.200, 0.151
548.300, 0.141
548.400, 0.139
548.500, 0.140
548.600, 0.134
548.700, 0.160
548.800, 0.160
548.900, 0.155
549.000, 0.147
549.100, 0.176
549.200, 0.143
549.300, 0.146
549.400, 0.162
549.500, 0.157
549.600, 0.166
549.700, 0.180
549.800, 0.170
549.900, 0.154
550.000, 0.161
550.100, 0.150
550.200, 0.186
550.300, 0.177
550.400, 0.176
550.500, 0.176
550.600, 0.166
550.700, 0.182
550.800, 0.176
550.900, 0.165
551.000, 0.162
551.100, 0.169
551.200, 0.164
551.300, 0.161
551.400, 0.185
551.500, 0.152
551.600, 0.146
551.700, 0.136
551.800, 0.132
551.900, 0.145
552.000, 0.143
552.100, 0.155
552.200, 0.140
552.300, 0.167
552.400, 0.159
552.500, 0.161
552.600, 0.140
552.700, 0.151
552.800, 0.142
552.900, 0.161
553.000, 0.174
553.100, 0.152
553.200, 0.157
553.300, 0.159
553.400, 0.161
553.500, 0.173
553.600, 0.164
553.700, 0.144
553.800, 0.141
553.900, 0.150
554.000, 0.202
554.100, 0.186
554.200, 0.201
554.300, 0.201
554.400, 0.187
554.500, 0.175
554.600, 0.173
554.700, 0.165
554.800, 0.174
554.900, 0.131
555.000, 0.147
555.100, 0.174
555.200, 0.147
555.300, 0.181
555.400, 0.166
555.500, 0.155
555.600, 0.157
555.700, 0.156
555.800, 0.148
555.900, 0.144
556.000, 0.154
556.100, 0.145
556.200, 0.148
556.300, 0.166
556.400, 0.134
556.500, 0.147
556.600, 0.141
556.700, 0.139
556.800, 0.146
556.900, 0.138
557.000, 0.170
557.100, 0.191
557.200, 0.174
557.300, 0.139
557.400, 0.141
557.500, 0.137
557.600, 0.146
557.700, 0.168
557.800, 0.148
557.900, 0.119
558.000, 0.116
558.100, 0.133
558.200, 0.135
558.300, 0.171
558.400, 0.158
558.500, 0.146
558.600, 0.157
558.700, 0.145
558.800, 0.164
558.900, 0.158
559.000, 0.156
559.100, 0.158
559.200, 0.164
559.300, 0.170
559.400, 0.145
559.500, 0.190
559.600, 0.193
559.700, 0.189
559.800, 0.154
559.900, 0.141
560.000, 0.155
560.100, 0.168
560.200, 0.170
560.300, 0.207
560.400, 0.203
560.500, 0.190
560.600, 0.168
560.700, 0.145
560.800, 0.168
560.900, 0.154
561.000, 0.162
561.100, 0.153
561.200, 0.138
561.300, 0.150
561.400, 0.132
561.500, 0.152
561.600, 0.158
561.700, 0.129
561.800, 0.147
561.900, 0.159
562.000, 0.163
562.100, 0.133
562.200, 0.143
562.300, 0.139
562.400, 0.133
562.500, 0.126
562.600, 0.135
562.700, 0.143
562.800, 0.143
562.900, 0.120
563.000, 0.116
563.100, 0.125
563.200, 0.134
563.300, 0.146
563.400, 0.162
563.500, 0.156
563.600, 0.164
563.700, 0.171
563.800, 0.145
563.900, 0.168
564.000, 0.198
564.100, 0.191
564.200, 0.161
564.300, 0.175
564.400, 0.181
564.500, 0.162
564.600, 0.149
564.700, 0.134
564.800, 0.140
564.900, 0.157
565.000, 0.154
565.100, 0.147
565.200, 0.142
565.300, 0.144
565.400, 0.134
565.500, 0.146
565.600, 0.185
565.700, 0.147
565.800, 0.136
565.900, 0.153
566.000, 0.158
566.100, 0.158
566.200, 0.148
566.300, 0.148
566.400, 0.148
566.500, 0.156
566.600, 0.162
566.700, 0.146
566.800, 0.152
566.900, 0.140
567.000, 0.139
567.100, 0.140
567.200, 0.159
567.300, 0.137
567.400, 0.147
567.500, 0.147
567.600, 0.138
567.700, 0.142
567.800, 0.160
567.900, 0.167
568.000, 0.166
568.100, 0.150
568.200, 0.136
568.300, 0.140
568.400, 0.144
568.500, 0.143
568.600, 0.146
568.700, 0.139
568.800, 0.156
568.900, 0.149
569.000, 0.154
569.100, 0.132
569.200, 0.132
569.300, 0.141
569.400, 0.140
569.500, 0.142
569.600, 0.155
569.700, 0.152
569.800, 0.165
569.900, 0.170
570.000, 0.150
570.100, 0.171
570.200, 0.164
570.300, 0.175
570.400, 0.172
570.500, 0.179
570.600, 0.200
570.700, 0.153
570.800, 0.147
570.900, 0.149
571.000, 0.153
571.100, 0.176
571.200, 0.169
571.300, 0.153
571.400, 0.158
571.500, 0.161
571.600, 0.183
571.700, 0.187
571.800, 0.154
571.900, 0.149
572.000, 0.154
572.100, 0.201
572.200, 0.193
572.300, 0.192
572.400, 0.202
572.500, 0.222
572.600, 0.190
572.700, 0.194
572.800, 0.210
572.900, 0.180
573.000, 0.192
573.100, 0.218
573.200, 0.187
573.300, 0.206
573.400, 0.198
573.500, 0.203
573.600, 0.177
573.700, 0.176
573.800, 0.181
573.900, 0.172
574.000, 0.149
574.100, 0.154
574.200, 0.152
574.300, 0.154
574.400, 0.168
574.500, 0.164
574.600, 0.153
574.700, 0.142
574.800, 0.143
574.900, 0.156
575.000, 0.170
575.100, 0.137
575.200, 0.136
575.300, 0.138
575.400, 0.145
575.500, 0.135
575.600, 0.146
575.700, 0.153
575.800, 0.134
575.900, 0.156
576.000, 0.142
576.100, 0.168
576.200, 0.171
576.300, 0.184
576.400, 0.178
576.500, 0.183
576.600, 0.188
576.700, 0.192
576.800, 0.209
576.900, 0.186
577.000, 0.172
577.100, 0.181
577.200, 0.167
577.300, 0.169
577.400, 0.156
577.500, 0.152
577.600, 0.144
577.700, 0.160
577.800, 0.148
577.900, 0.159
578.000, 0.142
578.100, 0.139
578.200, 0.145
578.300, 0.151
578.400, 0.159
578.500, 0.172
578.600, 0.173
578.700, 0.178
578.800, 0.189
578.900, 0.200
579.000, 0.202
579.100, 0.146
579.200, 0.158
579.300, 0.181
579.400, 0.185
579.500, 0.181
579.600, 0.203
579.700, 0.176
579.800, 0.163
579.900, 0.159
580.000, 0.139
580.100, 0.177
580.200, 0.165
580.300, 0.158
580.400, 0.157
580.500, 0.170
580.600, 0.173
580.700, 0.179
580.800, 0.190
580.900, 0.169
581.000, 0.165
581.100, 0.181
581.200, 0.148
581.300, 0.143
581.400, 0.152
581.500, 0.161
581.600, 0.170
581.700, 0.146
581.800, 0.152
581.900, 0.158
582.000, 0.166
582.100, 0.177
582.200, 0.167
582.300, 0.179
582.400, 0.172
582.500, 0.174
582.600, 0.200
582.700, 0.220
582.800, 0.234
582.900, 0.246
583.000, 0.207
583.100, 0.232
583.200, 0.170
583.300, 0.164
583.400, 0.189
583.500, 0.212
583.600, 0.191
583.700, 0.205
583.800, 0.191
583.900, 0.178
584.000, 0.177
584.100, 0.180
584.200, 0.220
584.300, 0.245
584.400, 0.189
584.500, 0.207
584.600, 0.206
584.700, 0.198
584.800, 0.215
584.900, 0.203
585.000, 0.224
585.100, 0.183
585.200, 0.213
585.300, 0.188
585.400, 0.199
585.500, 0.177
585.600, 0.184
585.700, 0.157
585.800, 0.170
585.900, 0.189
586.000, 0.183
586.100, 0.163
586.200, 0.175
586.300, 0.173
586.400, 0.155
586.500, 0.160
586.600, 0.150
586.700, 0.161
586.800, 0.152
586.900, 0.162
587.000, 0.178
587.100, 0.178
587.200, 0.166
587.300, 0.160
587.400, 0.177
587.500, 0.168
587.600, 0.162
587.700, 0.169
587.800, 0.185
587.900, 0.172
588.000, 0.178
588.100, 0.190
588.200, 0.186
588.300, 0.167
588.400, 0.176
588.500, 0.170
588.600, 0.185
588.700, 0.178
588.800, 0.169
588.900, 0.167
589.000, 0.163
589.100, 0.178
589.200, 0.168
589.300, 0.162
589.400, 0.173
589.500, 0.170
589.600, 0.182
589.700, 0.144
589.800, 0.122
589.900, 0.137
590.000, 0.175
590.100, 0.163
590.200, 0.163
590.300, 0.217
590.400, 0.208
590.500, 0.182
590.600, 0.188
590.700, 0.183
590.800, 0.179
590.900, 0.148
591.000, 0.154
591.100, 0.146
591.200, 0.157
591.300, 0.184
591.400, 0.187
591.500, 0.212
591.600, 0.201
591.700, 0.181
591.800, 0.187
591.900, 0.202
592.000, 0.179
592.100, 0.191
592.200, 0.205
592.300, 0.220
592.400, 0.207
592.500, 0.193
592.600, 0.188
592.700, 0.206
592.800, 0.182
592.900, 0.215
593.000, 0.190
593.100, 0.172
593.200, 0.178
593.300, 0.206
593.400, 0.220
593.500, 0.221
593.600, 0.187
593.700, 0.186
593.800, 0.165
593.900, 0.181
594.000, 0.159
594.100, 0.171
594.200, 0.186
594.300, 0.164
594.400, 0.187
594.500, 0.165
594.600, 0.172
594.700, 0.193
594.800, 0.206
594.900, 0.187
595.000, 0.183
595.100, 0.172
595.200, 0.216
595.300, 0.192
595.400, 0.201
595.500, 0.181
595.600, 0.163
595.700, 0.154
595.800, 0.131
595.900, 0.142
596.000, 0.158
596.100, 0.148
596.200, 0.145
596.300, 0.156
596.400, 0.165
596.500, 0.158
596.600, 0.157
596.700, 0.157
596.800, 0.156
596.900, 0.180
597.000, 0.173
597.100, 0.180
597.200, 0.160
597.300, 0.149
597.400, 0.149
597.500, 0.186
597.600, 0.171
597.700, 0.173
597.800, 0.181
597.900, 0.160
598.000, 0.160
598.100, 0.166
598.200, 0.162
598.300, 0.176
598.400, 0.175
598.500, 0.241
598.600, 0.178
598.700, 0.179
598.800, 0.178
598.900, 0.207
599.000, 0.220
599.100, 0.207
599.200, 0.194
599.300, 0.186
599.400, 0.181
599.500, 0.182
599.600, 0.171
599.700, 0.177
599.800, 0.195
599.900, 0.173
600.000, 0.167
600.100, 0.187
600.200, 0.179
600.300, 0.229
600.400, 0.209
600.500, 0.187
600.600, 0.223
600.700, 0.215
600.800, 0.194
600.900, 0.181
601.000, 0.179
601.100, 0.146
601.200, 0.148
601.300, 0.159
601.400, 0.150
601.500, 0.156
601.600, 0.149
601.700, 0.159
601.800, 0.173
601.900, 0.159
602.000, 0.174
602.100, 0.160
602.200, 0.146
602.300, 0.153
602.400, 0.196
602.500, 0.177
602.600, 0.196
602.700, 0.214
602.800, 0.211
602.900, 0.206
603.000, 0.186
603.100, 0.162
603.200, 0.170
603.300, 0.159
603.400, 0.164
603.500, 0.187
603.600, 0.179
603.700, 0.196
603.800, 0.198
603.900, 0.227
604.000, 0.189
604.100, 0.163
604.200, 0.161
604.300, 0.164
604.400, 0.146
604.500, 0.186
604.600, 0.152
604.700, 0.152
604.800, 0.160
604.900, 0.176
605.000, 0.197
605.100, 0.169
605.200, 0.199
605.300, 0.168
605.400, 0.160
605.500, 0.150
605.600, 0.167
605.700, 0.152
605.800, 0.159
605.900, 0.147
606.000, 0.150
606.100, 0.151
606.200, 0.146
606.300, 0.166
606.400, 0.156
606.500, 0.163
606.600, 0.172
606.700, 0.178
606.800, 0.168
606.900, 0.157
607.000, 0.151
607.100, 0.154
607.200, 0.151
607.300, 0.190
607.400, 0.158
607.500, 0.156
607.600, 0.150
607.700, 0.164
607.800, 0.159
607.900, 0.158
608.000, 0.170
608.100, 0.166
608.200, 0.175
608.300, 0.156
608.400, 0.173
608.500, 0.195
608.600, 0.167
608.700, 0.177
608.800, 0.178
608.900, 0.171
609.000, 0.169
609.100, 0.173
609.200, 0.156
609.300, 0.182
609.400, 0.184
609.500, 0.164
609.600, 0.162
609.700, 0.179
609.800, 0.180
609.900, 0.171
610.000, 0.179
610.100, 0.191
610.200, 0.159
610.300, 0.171
610.400, 0.174
610.500, 0.173
610.600, 0.183
610.700, 0.169
610.800, 0.158
610.900, 0.145
611.000, 0.149
611.100, 0.149
611.200, 0.149
611.300, 0.150
611.400, 0.164
611.500, 0.169
611.600, 0.154
611.700, 0.166
611.800, 0.179
611.900, 0.162
612.000, 0.168
612.100, 0.151
612.200, 0.151
612.300, 0.169
612.400, 0.142
612.500, 0.141
612.600, 0.145
612.700, 0.166
612.800, 0.146
612.900, 0.157
613.000, 0.181
613.100, 0.194
613.200, 0.209
613.300, 0.236
613.400, 0.205
613.500, 0.214
613.600, 0.225
613.700, 0.238
613.800, 0.165
613.900, 0.178
614.000, 0.158
614.100, 0.181
614.200, 0.146
614.300, 0.161
614.400, 0.155
614.500, 0.165
614.600, 0.160
614.700, 0.178
614.800, 0.150
614.900, 0.148
615.000, 0.145
615.100, 0.175
615.200, 0.178
615.300, 0.158
615.400, 0.144
615.500, 0.151
615.600, 0.170
615.700, 0.178
615.800, 0.157
615.900, 0.157
616.000, 0.173
616.100, 0.167
616.200, 0.177
616.300, 0.168
616.400, 0.174
616.500, 0.181
616.600, 0.186
616.700, 0.196
616.800, 0.174
616.900, 0.172
617.000, 0.151
617.100, 0.162
617.200, 0.167
617.300, 0.172
617.400, 0.168
617.500, 0.183
617.600, 0.170
617.700, 0.180
617.800, 0.162
617.900, 0.168
618.000, 0.174
618.100, 0.175
618.200, 0.194
618.300, 0.175
618.400, 0.207
618.500, 0.209
618.600, 0.203
618.700, 0.195
618.800, 0.221
618.900, 0.197
619.000, 0.199
619.100, 0.187
619.200, 0.211
619.300, 0.194
619.400, 0.203
619.500, 0.183
619.600, 0.176
619.700, 0.193
619.800, 0.203
619.900, 0.204
620.000, 0.210
620.100, 0.215
620.200, 0.241
620.300, 0.255
620.400, 0.242
620.500, 0.227
620.600, 0.206
620.700, 0.216
620.800, 0.209
620.900, 0.169
621.000, 0.193
621.100, 0.198
621.200, 0.223
621.300, 0.198
621.400, 0.188
621.500, 0.191
621.600, 0.180
621.700, 0.165
621.800, 0.173
621.900, 0.169
622.000, 0.168
622.100, 0.160
622.200, 0.183
622.300, 0.182
622.400, 0.179
622.500, 0.168
622.600, 0.164
622.700, 0.189
622.800, 0.184
622.900, 0.166
623.000, 0.155
623.100, 0.173
623.200, 0.175
623.300, 0.183
623.400, 0.208
623.500, 0.167
623.600, 0.171
623.700, 0.156
623.800, 0.168
623.900, 0.184
624.000, 0.190
624.100, 0.171
624.200, 0.165
624.300, 0.136
624.400, 0.154
624.500, 0.141
624.600, 0.128
624.700, 0.128
624.800, 0.137
624.900, 0.130
625.000, 0.145
625.100, 0.126
625.200, 0.131
625.300, 0.120
625.400, 0.132
625.500, 0.135
625.600, 0.131
625.700, 0.161
625.800, 0.119
625.900, 0.148
626.000, 0.147
626.100, 0.135
626.200, 0.119
626.300, 0.129
626.400, 0.137
626.500, 0.143
626.600, 0.148
626.700, 0.153
626.800, 0.177
626.900, 0.156
627.000, 0.156
627.100, 0.181
627.200, 0.147
627.300, 0.197
627.400, 0.182
627.500, 0.196
627.600, 0.178
627.700, 0.166
627.800, 0.194
627.900, 0.168
628.000, 0.144
628.100, 0.147
628.200, 0.156
628.300, 0.145
628.400, 0.183
628.500, 0.159
628.600, 0.179
628.700, 0.181
628.800, 0.171
628.900, 0.149
629.000, 0.138
629.100, 0.144
629.200, 0.155
629.300, 0.139
629.400, 0.144
629.500, 0.153
629.600, 0.130
629.700, 0.141
629.800, 0.161
629.900, 0.186
630.000, 0.167
630.100, 0.146
630.200, 0.143
630.300, 0.167
630.400, 0.228
630.500, 0.183
630.600, 0.138
630.700, 0.157
630.800, 0.153
630.900, 0.186
631.000, 0.159
631.100, 0.159
631.200, 0.137
631.300, 0.153
631.400, 0.165
631.500, 0.164
631.600, 0.146
631.700, 0.164
631.800, 0.148
631.900, 0.157
632.000, 0.168
632.100, 0.147
632.200, 0.154
632.300, 0.168
632.400, 0.155
632.500, 0.149
632.600, 0.151
632.700, 0.166
632.800, 0.181
632.900, 0.177
633.000, 0.177
633.100, 0.189
633.200, 0.213
633.300, 0.199
633.400, 0.198
633.500, 0.209
633.600, 0.229
633.700, 0.165
633.800, 0.161
633.900, 0.184
634.000, 0.208
634.100, 0.208
634.200, 0.216
634.300, 0.220
634.400, 0.196
634.500, 0.209
634.600, 0.229
634.700, 0.202
634.800, 0.205
634.900, 0.183
635.000, 0.170
635.100, 0.212
635.200, 0.204
635.300, 0.193
635.400, 0.189
635.500, 0.199
635.600, 0.194
635.700, 0.199
635.800, 0.188
635.900, 0.177
636.000, 0.190
636.100, 0.211
636.200, 0.218
636.300, 0.252
636.400, 0.218
636.500, 0.244
636.600, 0.199
636.700, 0.213
636.800, 0.233
636.900, 0.208
637.000, 0.197
637.100, 0.239
637.200, 0.213
637.300, 0.220
637.400, 0.185
637.500, 0.152
637.600, 0.178
637.700, 0.169
637.800, 0.156
637.900, 0.189
638.000, 0.173
638.100, 0.139
638.200, 0.141
638.300, 0.152
638.400, 0.168
638.500, 0.142
638.600, 0.149
638.700, 0.149
638.800, 0.148
638.900, 0.144
639.000, 0.152
639.100, 0.165
639.200, 0.176
639.300, 0.148
639.400, 0.147
639.500, 0.151
639.600, 0.154
639.700, 0.152
639.800, 0.157
639.900, 0.171
640.000, 0.173
640.100, 0.194
640.200, 0.191
640.300, 0.161
640.400, 0.170
640.500, 0.167
640.600, 0.191
640.700, 0.168
640.800, 0.173
640.900, 0.186
641.000, 0.169
641.100, 0.194
641.200, 0.214
641.300, 0.173
641.400, 0.170
641.500, 0.147
641.600, 0.213
641.700, 0.217
641.800, 0.194
641.900, 0.197
642.000, 0.234
642.100, 0.175
642.200, 0.165
642.300, 0.151
642.400, 0.167
642.500, 0.151
642.600, 0.160
642.700, 0.170
642.800, 0.177
642.900, 0.149
643.000, 0.164
643.100, 0.203
643.200, 0.186
643.300, 0.180
643.400, 0.204
643.500, 0.205
643.600, 0.195
643.700, 0.190
643.800, 0.173
643.900, 0.160
644.000, 0.170
644.100, 0.157
644.200, 0.162
644.300, 0.174
644.400, 0.210
644.500, 0.175
644.600, 0.161
644.700, 0.163
644.800, 0.167
644.900, 0.164
645.000, 0.155
645.100, 0.156
645.200, 0.171
645.300, 0.156
645.400, 0.142
645.500, 0.158
645.600, 0.157
645.700, 0.157
645.800, 0.149
645.900, 0.141
646.000, 0.148
646.100, 0.150
646.200, 0.170
646.300, 0.171
646.400, 0.163
646.500, 0.194
646.600, 0.166
646.700, 0.156
646.800, 0.166
646.900, 0.176
647.000, 0.201
647.100, 0.188
647.200, 0.154
647.300, 0.151
647.400, 0.160
647.500, 0.186
647.600, 0.220
647.700, 0.180
647.800, 0.189
647.900, 0.187
648.000, 0.176
648.100, 0.182
648.200, 0.198
648.300, 0.195
648.400, 0.208
648.500, 0.193
648.600, 0.189
648.700, 0.170
648.800, 0.161
648.900, 0.182
649.000, 0.133
649.100, 0.140
649.200, 0.147
649.300, 0.168
649.400, 0.149
649.500, 0.163
649.600, 0.141
649.700, 0.174
649.800, 0.157
649.900, 0.150
650.000, 0.155
650.100, 0.164
650.200, 0.134
650.300, 0.133
650.400, 0.142
650.500, 0.164
650.600, 0.162
650.700, 0.146
650.800, 0.156
650.900, 0.153
651.000, 0.153
651.100, 0.155
651.200, 0.151
651.300, 0.167
651.400, 0.175
651.500, 0.163
651.600, 0.159
651.700, 0.213
651.800, 0.172
651.900, 0.180
652.000, 0.148
652.100, 0.169
652.200, 0.182
652.300, 0.188
652.400, 0.173
652.500, 0.179
652.600, 0.166
652.700, 0.147
652.800, 0.188
652.900, 0.173
653.000, 0.156
653.100, 0.169
653.200, 0.201
653.300, 0.185
653.400, 0.170
653.500, 0.188
653.600, 0.186
653.700, 0.184
653.800, 0.159
653.900, 0.157
654.000, 0.156
654.100, 0.179
654.200, 0.186
654.300, 0.210
654.400, 0.173
654.500, 0.185
654.600, 0.160
654.700, 0.176
654.800, 0.170
654.900, 0.155
655.000, 0.171
655.100, 0.142
655.200, 0.141
655.300, 0.159
655.400, 0.149
655.500, 0.143
655.600, 0.161
655.700, 0.158
655.800, 0.165
655.900, 0.169
656.000, 0.161
656.100, 0.145
656.200, 0.143
656.300, 0.154
656.400, 0.158
656.500, 0.181
656.600, 0.141
656.700, 0.178
656.800, 0.174
656.900, 0.162
657.000, 0.152
657.100, 0.177
657.200, 0.149
657.300, 0.129
657.400, 0.126
657.500, 0.102
657.600, 0.119
657.700, 0.149
657.800, 0.153
657.900, 0.126
658.000, 0.151
658.100, 0.154
658.200, 0.178
658.300, 0.136
658.400, 0.142
658.500, 0.174
658.600, 0.223
658.700, 0.208
658.800, 0.173
658.900, 0.149
659.000, 0.149
659.100, 0.154
659.200, 0.183
659.300, 0.184
659.400, 0.178
659.500, 0.174
659.600, 0.143
659.700, 0.134
659.800, 0.155
659.900, 0.151
660.000, 0.156
660.100, 0.163
660.200, 0.147
660.300, 0.159
660.400, 0.143
660.500, 0.159
660.600, 0.151
660.700, 0.149
660.800, 0.156
660.900, 0.177
661.000, 0.175
661.100, 0.161
661.200, 0.156
661.300, 0.184
661.400, 0.162
661.500, 0.149
661.600, 0.167
661.700, 0.157
661.800, 0.163
661.900, 0.158
662.000, 0.166
662.100, 0.188
662.200, 0.173
662.300, 0.157
662.400, 0.133
662.500, 0.148
662.600, 0.161
662.700, 0.169
662.800, 0.166
662.900, 0.176
663.000, 0.164
663.100, 0.172
663.200, 0.214
663.300, 0.160
663.400, 0.176
663.500, 0.145
663.600, 0.178
663.700, 0.163
663.800, 0.167
663.900, 0.175
664.000, 0.181
664.100, 0.152
664.200, 0.170
664.300, 0.181
664.400, 0.153
664.500, 0.173
664.600, 0.159
664.700, 0.149
664.800, 0.189
664.900, 0.171
665.000, 0.187
665.100, 0.186
665.200, 0.179
665.300, 0.173
665.400, 0.199
665.500, 0.185
665.600, 0.190
665.700, 0.173
665.800, 0.190
665.900, 0.191
666.000, 0.167
666.100, 0.188
666.200, 0.197
666.300, 0.147
666.400, 0.212
666.500, 0.200
666.600, 0.172
666.700, 0.167
666.800, 0.152
666.900, 0.167
667.000, 0.162
667.100, 0.161
667.200, 0.165
667.300, 0.176
667.400, 0.183
667.500, 0.165
667.600, 0.181
667.700, 0.194
667.800, 0.178
667.900, 0.183
668.000, 0.180
668.100, 0.192
668.200, 0.184
668.300, 0.169
668.400, 0.146
668.500, 0.134
668.600, 0.150
668.700, 0.148
668.800, 0.136
668.900, 0.137
669.000, 0.133
669.100, 0.136
669.200, 0.139
669.300, 0.152
669.400, 0.161
669.500, 0.157
669.600, 0.148
669.700, 0.136
669.800, 0.133
669.900, 0.121
670.000, 0.141
670.100, 0.153
670.200, 0.160
670.300, 0.155
670.400, 0.159
670.500, 0.159
670.600, 0.166
670.700, 0.145
670.800, 0.175
670.900, 0.166
671.000, 0.189
671.100, 0.186
671.200, 0.151
671.300, 0.169
671.400, 0.165
671.500, 0.169
671.600, 0.164
671.700, 0.172
671.800, 0.168
671.900, 0.162
672.000, 0.173
672.100, 0.165
672.200, 0.151
672.300, 0.180
672.400, 0.203
672.500, 0.193
672.600, 0.209
672.700, 0.250
672.800, 0.226
672.900, 0.203
673.000, 0.160
673.100, 0.177
673.200, 0.176
673.300, 0.167
673.400, 0.202
673.500, 0.221
673.600, 0.178
673.700, 0.189
673.800, 0.193
673.900, 0.159
674.000, 0.191
674.100, 0.179
674.200, 0.175
674.300, 0.163
674.400, 0.135
674.500, 0.133
674.600, 0.133
674.700, 0.149
674.800, 0.134
674.900, 0.165
675.000, 0.169
675.100, 0.167
675.200, 0.182
675.300, 0.173
675.400, 0.154
675.500, 0.153
675.600, 0.156
675.700, 0.177
675.800, 0.187
675.900, 0.171
676.000, 0.203
676.100, 0.158
676.200, 0.195
676.300, 0.195
676.400, 0.177
676.500, 0.163
676.600, 0.155
676.700, 0.143
676.800, 0.151
676.900, 0.152
677.000, 0.193
677.100, 0.195
677.200, 0.201
677.300, 0.206
677.400, 0.196
677.500, 0.218
677.600, 0.230
677.700, 0.242
677.800, 0.231
677.900, 0.221
678.000, 0.201
678.100, 0.194
678.200, 0.203
678.300, 0.216
678.400, 0.209
678.500, 0.171
678.600, 0.184
678.700, 0.151
678.800, 0.175
678.900, 0.163
679.000, 0.170
679.100, 0.178
679.200, 0.157
679.300, 0.145
679.400, 0.136
679.500, 0.159
679.600, 0.158
679.700, 0.142
679.800, 0.139
679.900, 0.149
680.000, 0.139
680.100, 0.142
680.200, 0.170
680.300, 0.152
680.400, 0.127
680.500, 0.120
680.600, 0.155
680.700, 0.129
680.800, 0.123
680.900, 0.130
681.000, 0.141
681.100, 0.147
681.200, 0.168
681.300, 0.175
681.400, 0.193
681.500, 0.156
681.600, 0.126
681.700, 0.121
681.800, 0.123
681.900, 0.107
682.000, 0.102
682.100, 0.119
682.200, 0.119
682.300, 0.120
682.400, 0.108
682.500, 0.141
682.600, 0.144
682.700, 0.146
682.800, 0.140
682.900, 0.128
683.000, 0.154
683.100, 0.139
683.200, 0.140
683.300, 0.139
683.400, 0.154
683.500, 0.147
683.600, 0.141
683.700, 0.124
683.800, 0.124
683.900, 0.129
684.000, 0.119
684.100, 0.163
684.200, 0.150
684.300, 0.134
684.400, 0.137
684.500, 0.153
684.600, 0.126
684.700, 0.147
684.800, 0.151
684.900, 0.138
685.000, 0.150
685.100, 0.142
685.200, 0.146
685.300, 0.133
685.400, 0.117
685.500, 0.129
685.600, 0.125
685.700, 0.136
685.800, 0.147
685.900, 0.151
686.000, 0.135
686.100, 0.167
686.200, 0.172
686.300, 0.145
686.400, 0.162
686.500, 0.144
686.600, 0.126
686.700, 0.135
686.800, 0.153
686.900, 0.145
687.000, 0.141
687.100, 0.140
687.200, 0.150
687.300, 0.140
687.400, 0.160
687.500, 0.156
687.600, 0.176
687.700, 0.184
687.800, 0.184
687.900, 0.161
688.000, 0.164
688.100, 0.146
688.200, 0.136
688.300, 0.139
688.400, 0.151
688.500, 0.143
688.600, 0.189
688.700, 0.181
688.800, 0.195
688.900, 0.220
689.000, 0.193
689.100, 0.194
689.200, 0.178
689.300, 0.170
689.400, 0.179
689.500, 0.170
689.600, 0.192
689.700, 0.197
689.800, 0.192
689.900, 0.187
690.000, 0.181
690.100, 0.193
690.200, 0.181
690.300, 0.194
690.400, 0.202
690.500, 0.217
690.600, 0.195
690.700, 0.173
690.800, 0.187
690.900, 0.181
691.000, 0.163
691.100, 0.175
691.200, 0.172
691.300, 0.162
691.400, 0.179
691.500, 0.173
691.600, 0.189
691.700, 0.215
691.800, 0.183
691.900, 0.183
692.000, 0.181
692.100, 0.193
692.200, 0.196
692.300, 0.199
692.400, 0.190
692.500, 0.216
692.600, 0.199
692.700, 0.186
692.800, 0.173
692.900, 0.171
693.000, 0.169
693.100, 0.169
693.200, 0.193
693.300, 0.164
693.400, 0.174
693.500, 0.202
693.600, 0.192
693.700, 0.170
693.800, 0.169
693.900, 0.171
694.000, 0.181
694.100, 0.179
694.200, 0.169
694.300, 0.166
694.400, 0.164
694.500, 0.149
694.600, 0.141
694.700, 0.161
694.800, 0.153
694.900, 0.162
695.000, 0.141
695.100, 0.131
695.200, 0.143
695.300, 0.154
695.400, 0.142
695.500, 0.175
695.600, 0.165
695.700, 0.153
695.800, 0.154
695.900, 0.133
696.000, 0.133
696.100, 0.130
696.200, 0.134
696.300, 0.145
696.400, 0.131
696.500, 0.141
696.600, 0.151
696.700, 0.149
696.800, 0.150
696.900, 0.163
697.000, 0.174
697.100, 0.172
697.200, 0.168
697.300, 0.182
697.400, 0.210
697.500, 0.177
697.600, 0.188
697.700, 0.178
697.800, 0.198
697.900, 0.211
698.000, 0.207
698.100, 0.207
698.200, 0.188
698.300, 0.171
698.400, 0.180
698.500, 0.187
698.600, 0.181
698.700, 0.168
698.800, 0.204
698.900, 0.182
699.000, 0.162
699.100, 0.187
699.200, 0.165
699.300, 0.164
699.400, 0.137
699.500, 0.172
699.600, 0.166
699.700, 0.167
699.800, 0.169
699.900, 0.179
700.000, 0.164
700.100, 0.164
700.200, 0.182
700.300, 0.163
700.400, 0.171
700.500, 0.191
700.600, 0.176
700.700, 0.179
700.800, 0.160
700.900, 0.179
701.000, 0.154
701.100, 0.162
701.200, 0.166
701.300, 0.167
701.400, 0.180
701.500, 0.190
701.600, 0.186
701.700, 0.175
701.800, 0.169
701.900, 0.165
702.000, 0.161
702.100, 0.160
702.200, 0.156
702.300, 0.161
702.400, 0.162
702.500, 0.156
702.600, 0.153
702.700, 0.156
702.800, 0.156
702.900, 0.152
703.000, 0.180
703.100, 0.145
703.200, 0.157
703.300, 0.137
703.400, 0.141
703.500, 0.155
703.600, 0.156
703.700, 0.143
703.800, 0.167
703.900, 0.175
704.000, 0.158
704.100, 0.141
704.200, 0.173
704.300, 0.150
704.400, 0.166
704.500, 0.160
704.600, 0.151
704.700, 0.154
704.800, 0.151
704.900, 0.158
705.000, 0.161
705.100, 0.152
705.200, 0.155
705.300, 0.169
705.400, 0.161
705.500, 0.153
705.600, 0.156
705.700, 0.148
705.800, 0.165
705.900, 0.147
706.000, 0.159
706.100, 0.142
706.200, 0.152
706.300, 0.138
706.400, 0.155
706.500, 0.156
706.600, 0.153
706.700, 0.168
706.800, 0.160
706.900, 0.149
707.000, 0.148
707.100, 0.126
707.200, 0.164
707.300, 0.169
707.400, 0.185
707.500, 0.168
707.600, 0.183
707.700, 0.174
707.800, 0.193
707.900, 0.187
708.000, 0.160
708.100, 0.186
708.200, 0.183
708.300, 0.170
708.400, 0.169
708.500, 0.150
708.600, 0.160
708.700, 0.156
708.800, 0.151
708.900, 0.158
709.000, 0.159
709.100, 0.171
709.200, 0.162
709.300, 0.190
709.400, 0.137
709.500, 0.157
709.600, 0.157
709.700, 0.145
709.800, 0.137
709.900, 0.132
710.000, 0.134
710.100, 0.145
710.200, 0.147
710.300, 0.147
710.400, 0.146
710.500, 0.166
710.600, 0.165
710.700, 0.161
710.800, 0.178
710.900, 0.161
711.000, 0.159
711.100, 0.220
711.200, 0.200
711.300, 0.202
711.400, 0.194
711.500, 0.191
711.600, 0.203
711.700, 0.186
711.800, 0.135
711.900, 0.137
712.000, 0.156
712.100, 0.143
712.200, 0.161
712.300, 0.162
712.400, 0.177
712.500, 0.158
712.600, 0.180
712.700, 0.176
712.800, 0.168
712.900, 0.185
713.000, 0.207
713.100, 0.197
713.200, 0.174
713.300, 0.189
713.400, 0.149
713.500, 0.178
713.600, 0.168
713.700, 0.156
713.800, 0.154
713.900, 0.146
714.000, 0.132
714.100, 0.129
714.200, 0.137
714.300, 0.155
714.400, 0.153
714.500, 0.180
714.600, 0.158
714.700, 0.147
714.800, 0.151
714.900, 0.143
715.000, 0.167
715.100, 0.145
715.200, 0.167
715.300, 0.128
715.400, 0.152
715.500, 0.137
715.600, 0.160
715.700, 0.143
715.800, 0.145
715.900, 0.154
716.000, 0.165
716.100, 0.148
716.200, 0.179
716.300, 0.186
716.400, 0.180
716.500, 0.208
716.600, 0.175
716.700, 0.154
716.800, 0.177
716.900, 0.197
717.000, 0.165
717.100, 0.159
717.200, 0.145
717.300, 0.146
717.400, 0.143
717.500, 0.136
717.600, 0.138
717.700, 0.151
717.800, 0.144
717.900, 0.166
718.000, 0.178
718.100, 0.166
718.200, 0.198
718.300, 0.163
718.400, 0.175
718.500, 0.169
718.600, 0.174
718.700, 0.172
718.800, 0.162
718.900, 0.150
719.000, 0.133
719.100, 0.158
719.200, 0.172
719.300, 0.167
719.400, 0.153
719.500, 0.178
719.600, 0.176
719.700, 0.187
719.800, 0.157
719.900, 0.181
720.000, 0.187
720.100, 0.219
720.200, 0.189
720.300, 0.209
720.400, 0.189
720.500, 0.172
720.600, 0.184
720.700, 0.209
720.800, 0.187
720.900, 0.194
721.000, 0.204
721.100, 0.198
721.200, 0.180
721.300, 0.183
721.400, 0.210
721.500, 0.196
721.600, 0.198
721.700, 0.188
721.800, 0.128
721.900, 0.165
722.000, 0.149
722.100, 0.139
722.200, 0.162
722.300, 0.138
722.400, 0.138
722.500, 0.140
722.600, 0.129
722.700, 0.127
722.800, 0.144
722.900, 0.142
723.000, 0.134
723.100, 0.121
723.200, 0.123
723.300, 0.139
723.400, 0.139
723.500, 0.176
723.600, 0.124
723.700, 0.142
723.800, 0.142
723.900, 0.124
724.000, 0.162
724.100, 0.207
724.200, 0.182
724.300, 0.170
724.400, 0.177
724.500, 0.177
724.600, 0.169
724.700, 0.190
724.800, 0.155
724.900, 0.156
725.000, 0.162
725.100, 0.161
725.200, 0.130
725.300, 0.118
725.400, 0.140
725.500, 0.161
725.600, 0.149
725.700, 0.119
725.800, 0.131
725.900, 0.135
726.000, 0.137
726.100, 0.160
726.200, 0.143
726.300, 0.166
726.400, 0.139
726.500, 0.162
726.600, 0.142
726.700, 0.154
726.800, 0.160
726.900, 0.176
727.000, 0.140
727.100, 0.189
727.200, 0.164
727.300, 0.163
727.400, 0.148
727.500, 0.157
727.600, 0.150
727.700, 0.147
727.800, 0.166
727.900, 0.137
728.000, 0.141
728.100, 0.166
728.200, 0.128
728.300, 0.166
728.400, 0.169
728.500, 0.163
728.600, 0.174
728.700, 0.149
728.800, 0.154
728.900, 0.154
729.000, 0.193
729.100, 0.176
729.200, 0.168
729.300, 0.152
729.400, 0.145
729.500, 0.132
729.600, 0.143
729.700, 0.134
729.800, 0.156
729.900, 0.149
730.000, 0.151
730.100, 0.149
730.200, 0.150
730.300, 0.148
730.400, 0.150
730.500, 0.155
730.600, 0.133
730.700, 0.140
730.800, 0.144
730.900, 0.145
731.000, 0.148
731.100, 0.167
731.200, 0.159
731.300, 0.152
731.400, 0.135
731.500, 0.152
731.600, 0.163
731.700, 0.157
731.800, 0.161
731.900, 0.143
732.000, 0.151
732.100, 0.148
732.200, 0.149
732.300, 0.158
732.400, 0.150
732.500, 0.144
732.600, 0.153
732.700, 0.141
732.800, 0.145
732.900, 0.174
733.000, 0.152
733.100, 0.158
733.200, 0.147
733.300, 0.148
733.400, 0.162
733.500, 0.167
733.600, 0.158
733.700, 0.142
733.800, 0.165
733.900, 0.152
734.000, 0.169
734.100, 0.161
734.200, 0.166
734.300, 0.162
734.400, 0.161
734.500, 0.158
734.600, 0.156
734.700, 0.173
734.800, 0.155
734.900, 0.164
735.000, 0.145
735.100, 0.175
735.200, 0.198
735.300, 0.178
735.400, 0.173
735.500, 0.175
735.600, 0.163
735.700, 0.179
735.800, 0.192
735.900, 0.176
736.000, 0.156
736.100, 0.140
736.200, 0.142
736.300, 0.163
736.400, 0.175
736.500, 0.149
736.600, 0.142
736.700, 0.151
736.800, 0.144
736.900, 0.158
737.000, 0.175
737.100, 0.139
737.200, 0.158
737.300, 0.152
737.400, 0.184
737.500, 0.186
737.600, 0.165
737.700, 0.188
737.800, 0.160
737.900, 0.161
738.000, 0.195
738.100, 0.195
738.200, 0.182
738.300, 0.160
738.400, 0.172
738.500, 0.160
738.600, 0.170
738.700, 0.169
738.800, 0.180
738.900, 0.181
739.000, 0.151
739.100, 0.171
739.200, 0.185
739.300, 0.198
739.400, 0.172
739.500, 0.142
739.600, 0.158
739.700, 0.176
739.800, 0.170
739.900, 0.198
740.000, 0.160
740.100, 0.175
740.200, 0.154
740.300, 0.159
740.400, 0.151
740.500, 0.153
740.600, 0.157
740.700, 0.144
740.800, 0.133
740.900, 0.131
741.000, 0.137
741.100, 0.149
741.200, 0.149
741.300, 0.147
741.400, 0.137
741.500, 0.143
741.600, 0.144
741.700, 0.138
741.800, 0.146
741.900, 0.139
742.000, 0.137
742.100, 0.124
742.200, 0.148
742.300, 0.143
742.400, 0.132
742.500, 0.127
742.600, 0.117
742.700, 0.132
742.800, 0.138
742.900, 0.132
743.000, 0.131
743.100, 0.145
743.200, 0.125
743.300, 0.135
743.400, 0.121
743.500, 0.141
743.600, 0.132
743.700, 0.121
743.800, 0.135
743.900, 0.128
744.000, 0.161
744.100, 0.163
744.200, 0.150
744.300, 0.155
744.400, 0.146
744.500, 0.143
744.600, 0.146
744.700, 0.182
744.800, 0.178
744.900, 0.157
745.000, 0.153
745.100, 0.145
745.200, 0.144
745.300, 0.173
745.400, 0.144
745.500, 0.150
745.600, 0.152
745.700, 0.142
745.800, 0.148
745.900, 0.141
746.000, 0.133
746.100, 0.140
746.200, 0.156
746.300, 0.133
746.400, 0.146
746.500, 0.145
746.600, 0.137
746.700, 0.134
746.800, 0.149
746.900, 0.144
747.000, 0.169
747.100, 0.132
747.200, 0.133
747.300, 0.155
747.400, 0.123
747.500, 0.137
747.600, 0.146
747.700, 0.127
747.800, 0.124
747.900, 0.113
748.000, 0.159
748.100, 0.147
748.200, 0.167
748.300, 0.134
748.400, 0.137
748.500, 0.152
748.600, 0.152
748.700, 0.146
748.800, 0.138
748.900, 0.165
749.000, 0.158
749.100, 0.155
749.200, 0.185
749.300, 0.155
749.400, 0.195
749.500, 0.186
749.600, 0.191
749.700, 0.184
749.800, 0.188
749.900, 0.193
750.000, 0.202
750.100, 0.184
750.200, 0.160
750.300, 0.162
750.400, 0.176
750.500, 0.201
750.600, 0.210
750.700, 0.199
750.800, 0.195
750.900, 0.167
751.000, 0.181
751.100, 0.171
751.200, 0.150
751.300, 0.157
751.400, 0.191
751.500, 0.185
751.600, 0.180
751.700, 0.172
751.800, 0.208
751.900, 0.216
752.000, 0.170
752.100, 0.189
752.200, 0.208
752.300, 0.160
752.400, 0.187
752.500, 0.185
752.600, 0.180
752.700, 0.178
752.800, 0.174
752.900, 0.148
753.000, 0.162
753.100, 0.161
753.200, 0.141
753.300, 0.144
753.400, 0.143
753.500, 0.147
753.600, 0.162
753.700, 0.167
753.800, 0.167
753.900, 0.166
754.000, 0.177
754.100, 0.164
754.200, 0.174
754.300, 0.176
754.400, 0.181
754.500, 0.183
754.600, 0.146
754.700, 0.138
754.800, 0.146
754.900, 0.151
755.000, 0.137
755.100, 0.138
755.200, 0.204
755.300, 0.167
755.400, 0.179
755.500, 0.175
755.600, 0.183
755.700, 0.197
755.800, 0.161
755.900, 0.176
756.000, 0.170
756.100, 0.178
756.200, 0.175
756.300, 0.168
756.400, 0.166
756.500, 0.169
756.600, 0.138
756.700, 0.133
756.800, 0.143
756.900, 0.134
757.000, 0.132
757.100, 0.147
757.200, 0.157
757.300, 0.151
757.400, 0.146
757.500, 0.153
757.600, 0.129
757.700, 0.130
757.800, 0.124
757.900, 0.129
758.000, 0.119
758.100, 0.144
758.200, 0.154
758.300, 0.145
758.400, 0.150
758.500, 0.146
758.600, 0.148
758.700, 0.161
758.800, 0.113
758.900, 0.156
759.000, 0.165
759.100, 0.149
759.200, 0.144
759.300, 0.129
759.400, 0.111
759.500, 0.127
759.600, 0.120
759.700, 0.147
759.800, 0.146
759.900, 0.132
760.000, 0.158
760.100, 0.145
760.200, 0.153
760.300, 0.166
760.400, 0.124
760.500, 0.145
760.600, 0.123
760.700, 0.136
760.800, 0.150
760.900, 0.151
761.000, 0.158
761.100, 0.126
761.200, 0.140
761.300, 0.147
761.400, 0.149
761.500, 0.127
761.600, 0.143
761.700, 0.164
761.800, 0.150
761.900, 0.159
762.000, 0.142
762.100, 0.138
762.200, 0.145
762.300, 0.144
762.400, 0.141
762.500, 0.139
762.600, 0.144
762.700, 0.161
762.800, 0.134
762.900, 0.141
763.000, 0.148
763.100, 0.134
763.200, 0.131
763.300, 0.122
763.400, 0.129
763.500, 0.109
763.600, 0.134
763.700, 0.118
763.800, 0.141
763.900, 0.135
764.000, 0.122
764.100, 0.121
764.200, 0.127
764.300, 0.134
764.400, 0.139
764.500, 0.136
764.600, 0.164
764.700, 0.158
764.800, 0.155
764.900, 0.155
765.000, 0.153
765.100, 0.161
765.200, 0.167
765.300, 0.161
765.400, 0.149
765.500, 0.151
765.600, 0.147
765.700, 0.151
765.800, 0.151
765.900, 0.152
766.000, 0.152
766.100, 0.154
766.200, 0.164
766.300, 0.148
766.400, 0.132
766.500, 0.130
766.600, 0.142
766.700, 0.150
766.800, 0.155
766.900, 0.146
767.000, 0.140
767.100, 0.148
767.200, 0.147
767.300, 0.174
767.400, 0.129
767.500, 0.146
767.600, 0.137
767.700, 0.163
767.800, 0.160
767.900, 0.160
768.000, 0.164
768.100, 0.155
768.200, 0.140
768.300, 0.155
768.400, 0.144
768.500, 0.154
768.600, 0.144
768.700, 0.164
768.800, 0.143
768.900, 0.156
769.000, 0.162
769.100, 0.150
769.200, 0.142
769.300, 0.143
769.400, 0.148
769.500, 0.136
769.600, 0.153
769.700, 0.170
769.800, 0.151
769.900, 0.159
770.000, 0.145
770.100, 0.138
770.200, 0.131
770.300, 0.156
770.400, 0.149
770.500, 0.133
770.600, 0.120
770.700, 0.115
770.800, 0.113
770.900, 0.130
771.000, 0.128
771.100, 0.128
771.200, 0.125
771.300, 0.154
771.400, 0.156
771.500, 0.125
771.600, 0.129
771.700, 0.139
771.800, 0.145
771.900, 0.132
772.000, 0.119
772.100, 0.119
772.200, 0.137
772.300, 0.122
772.400, 0.124
772.500, 0.127
772.600, 0.144
772.700, 0.126
772.800, 0.124
772.900, 0.125
773.000, 0.124
773.100, 0.120
773.200, 0.123
773.300, 0.121
773.400, 0.126
773.500, 0.157
773.600, 0.158
773.700, 0.144
773.800, 0.138
773.900, 0.145
774.000, 0.145
774.100, 0.158
774.200, 0.125
774.300, 0.158
774.400, 0.143
774.500, 0.132
774.600, 0.144
774.700, 0.126
774.800, 0.135
774.900, 0.140
775.000, 0.133
775.100, 0.142
775.200, 0.140
775.300, 0.154
775.400, 0.141
775.500, 0.135
775.600, 0.162
775.700, 0.152
775.800, 0.147
775.900, 0.135
776.000, 0.143
776.100, 0.149
776.200, 0.140
776.300, 0.152
776.400, 0.160
776.500, 0.152
776.600, 0.156
776.700, 0.173
776.800, 0.156
776.900, 0.164
777.000, 0.163
777.100, 0.162
777.200, 0.150
777.300, 0.143
777.400, 0.145
777.500, 0.152
777.600, 0.142
777.700, 0.128
777.800, 0.150
777.900, 0.144
778.000, 0.150
778.100, 0.137
778.200, 0.136
778.300, 0.142
778.400, 0.161
778.500, 0.147
778.600, 0.157
778.700, 0.159
778.800, 0.169
778.900, 0.186
779.000, 0.153
779.100, 0.150
779.200, 0.135
779.300, 0.152
779.400, 0.148
779.500, 0.151
779.600, 0.159
779.700, 0.163
779.800, 0.170
779.900, 0.176
780.000, 0.180
780.100, 0.208
780.200, 0.174
780.300, 0.202
780.400, 0.192
780.500, 0.186
780.600, 0.170
780.700, 0.146
780.800, 0.196
780.900, 0.175
781.000, 0.174
781.100, 0.175
781.200, 0.178
781.300, 0.192
781.400, 0.178
781.500, 0.176
781.600, 0.169
781.700, 0.174
781.800, 0.170
781.900, 0.134
782.000, 0.159
782.100, 0.145
782.200, 0.133
782.300, 0.137
782.400, 0.139
782.500, 0.124
782.600, 0.136
782.700, 0.137
782.800, 0.146
782.900, 0.141
783.000, 0.145
783.100, 0.151
783.200, 0.154
783.300, 0.130
783.400, 0.156
783.500, 0.140
783.600, 0.133
783.700, 0.154
783.800, 0.156
783.900, 0.131
784.000, 0.135
784.100, 0.140
784.200, 0.174
784.300, 0.142
784.400, 0.158
784.500, 0.143
784.600, 0.130
784.700, 0.141
784.800, 0.127
784.900, 0.134
785.000, 0.152
785.100, 0.130
785.200, 0.149
785.300, 0.124
785.400, 0.118
785.500, 0.142
785.600, 0.141
785.700, 0.132
785.800, 0.157
785.900, 0.145
786.000, 0.132
786.100, 0.157
786.200, 0.162
786.300, 0.148
786.400, 0.140
786.500, 0.148
786.600, 0.137
786.700, 0.139
786.800, 0.151
786.900, 0.137
787.000, 0.144
787.100, 0.142
787.200, 0.143
787.300, 0.144
787.400, 0.138
787.500, 0.132
787.600, 0.132
787.700, 0.135
787.800, 0.141
787.900, 0.147
788.000, 0.137
788.100, 0.137
788.200, 0.152
788.300, 0.133
788.400, 0.136
788.500, 0.133
788.600, 0.148
788.700, 0.172
788.800, 0.141
788.900, 0.142
789.000, 0.143
789.100, 0.165
789.200, 0.153
789.300, 0.137
789.400, 0.146
789.500, 0.132
789.600, 0.143
789.700, 0.140
789.800, 0.133
789.900, 0.122
790.000, 0.127
790.100, 0.159
790.200, 0.166
790.300, 0.152
790.400, 0.137
790.500, 0.154
790.600, 0.164
790.700, 0.143
790.800, 0.152
790.900, 0.152
791.000, 0.155
791.100, 0.160
791.200, 0.158
791.300, 0.150
791.400, 0.163
791.500, 0.163
791.600, 0.161
791.700, 0.157
791.800, 0.159
791.900, 0.161
792.000, 0.142
792.100, 0.157
792.200, 0.134
792.300, 0.151
792.400, 0.164
792.500, 0.147
792.600, 0.148
792.700, 0.135
792.800, 0.161
792.900, 0.155
793.000, 0.170
793.100, 0.158
793.200, 0.164
793.300, 0.160
793.400, 0.162
793.500, 0.172
793.600, 0.160
793.700, 0.154
793.800, 0.153
793.900, 0.163
794.000, 0.148
794.100, 0.164
794.200, 0.172
794.300, 0.157
794.400, 0.152
794.500, 0.140
794.600, 0.141
794.700, 0.150
794.800, 0.159
794.900, 0.156
795.000, 0.153
795.100, 0.160
795.200, 0.150
795.300, 0.148
795.400, 0.161
795.500, 0.148
795.600, 0.165
795.700, 0.173
795.800, 0.163
795.900, 0.135
796.000, 0.142
796.100, 0.181
796.200, 0.230
796.300, 0.220
796.400, 0.229
796.500, 0.183
796.600, 0.171
796.700, 0.168
796.800, 0.157
796.900, 0.118
797.000, 0.141
797.100, 0.135
797.200, 0.135
797.300, 0.111
797.400, 0.109
797.500, 0.112
797.600, 0.131
797.700, 0.139
797.800, 0.154
797.900, 0.143
798.000, 0.162
798.100, 0.151
798.200, 0.133
798.300, 0.135
798.400, 0.169
798.500, 0.205
798.600, 0.187
798.700, 0.176
798.800, 0.140
798.900, 0.157
799.000, 0.188
799.100, 0.185
799.200, 0.165
799.300, 0.156
799.400, 0.169
799.500, 0.156
799.600, 0.183
799.700, 0.170
799.800, 0.165
799.900, 0.164
800.000, 0.163
800.100, 0.153
800.200, 0.136
800.300, 0.140
800.400, 0.135
800.500, 0.151
800.600, 0.133
800.700, 0.157
800.800, 0.152
800.900, 0.147
801.000, 0.146
801.100, 0.150
801.200, 0.139
801.300, 0.152
801.400, 0.143
801.500, 0.151
801.600, 0.166
801.700, 0.158
801.800, 0.166
801.900, 0.137
802.000, 0.157
802.100, 0.145
802.200, 0.164
802.300, 0.162
802.400, 0.147
802.500, 0.163
802.600, 0.136
802.700, 0.147
802.800, 0.153
802.900, 0.185
803.000, 0.150
803.100, 0.135
803.200, 0.156
803.300, 0.157
803.400, 0.164
803.500, 0.199
803.600, 0.175
803.700, 0.189
803.800, 0.183
803.900, 0.193
804.000, 0.211
804.100, 0.198
804.200, 0.175
804.300, 0.176
804.400, 0.176
804.500, 0.157
804.600, 0.179
804.700, 0.163
804.800, 0.169
804.900, 0.172
805.000, 0.190
805.100, 0.166
805.200, 0.181
805.300, 0.156
805.400, 0.152
805.500, 0.178
805.600, 0.161
805.700, 0.153
805.800, 0.171
805.900, 0.191
806.000, 0.168
806.100, 0.175
806.200, 0.196
806.300, 0.195
806.400, 0.182
806.500, 0.185
806.600, 0.198
806.700, 0.198
806.800, 0.198
806.900, 0.195
807.000, 0.173
807.100, 0.168
807.200, 0.178
807.300, 0.195
807.400, 0.192
807.500, 0.217
807.600, 0.202
807.700, 0.196
807.800, 0.221
807.900, 0.203
808.000, 0.206
808.100, 0.188
808.200, 0.182
808.300, 0.199
808.400, 0.190
808.500, 0.227
808.600, 0.229
808.700, 0.207
808.800, 0.193
808.900, 0.191
809.000, 0.203
809.100, 0.200
809.200, 0.205
809.300, 0.182
809.400, 0.178
809.500, 0.202
809.600, 0.185
809.700, 0.190
809.800, 0.214
809.900, 0.209
810.000, 0.210
810.100, 0.207
810.200, 0.190
810.300, 0.194
810.400, 0.191
810.500, 0.185
810.600, 0.199
810.700, 0.163
810.800, 0.196
810.900, 0.217
811.000, 0.190
811.100, 0.195
811.200, 0.164
811.300, 0.186
811.400, 0.165
811.500, 0.154
811.600, 0.160
811.700, 0.162
811.800, 0.150
811.900, 0.149
812.000, 0.169
812.100, 0.157
812.200, 0.150
812.300, 0.150
812.400, 0.126
812.500, 0.131
812.600, 0.119
812.700, 0.134
812.800, 0.128
812.900, 0.132
813.000, 0.121
813.100, 0.135
813.200, 0.137
813.300, 0.128
813.400, 0.139
813.500, 0.132
813.600, 0.141
813.700, 0.138
813.800, 0.120
813.900, 0.131
814.000, 0.139
814.100, 0.138
814.200, 0.134
814.300, 0.171
814.400, 0.170
814.500, 0.165
814.600, 0.141
814.700, 0.159
814.800, 0.188
814.900, 0.173
815.000, 0.177
815.100, 0.169
815.200, 0.185
815.300, 0.185
815.400, 0.213
815.500, 0.172
815.600, 0.185
815.700, 0.177
815.800, 0.182
815.900, 0.195
816.000, 0.200
816.100, 0.210
816.200, 0.182
816.300, 0.209
816.400, 0.195
816.500, 0.197
816.600, 0.191
816.700, 0.162
816.800, 0.199
816.900, 0.179
817.000, 0.192
817.100, 0.186
817.200, 0.165
817.300, 0.159
817.400, 0.173
817.500, 0.190
817.600, 0.212
817.700, 0.189
817.800, 0.226
817.900, 0.195
818.000, 0.181
818.100, 0.180
818.200, 0.191
818.300, 0.192
818.400, 0.194
818.500, 0.180
818.600, 0.169
818.700, 0.175
818.800, 0.212
818.900, 0.167
819.000, 0.185
819.100, 0.204
819.200, 0.211
819.300, 0.200
819.400, 0.176
819.500, 0.204
819.600, 0.176
819.700, 0.225
819.800, 0.212
819.900, 0.186
820.000, 0.204
820.100, 0.208
820.200, 0.181
820.300, 0.198
820.400, 0.221
820.500, 0.221
820.600, 0.201
820.700, 0.223
820.800, 0.224
820.900, 0.220
821.000, 0.238
821.100, 0.228
821.200, 0.197
821.300, 0.197
821.400, 0.182
821.500, 0.209
821.600, 0.171
821.700, 0.183
821.800, 0.203
821.900, 0.221
822.000, 0.224
822.100, 0.185
822.200, 0.207
822.300, 0.201
822.400, 0.164
822.500, 0.163
822.600, 0.151
822.700, 0.161
822.800, 0.171
822.900, 0.181
823.000, 0.158
823.100, 0.183
823.200, 0.184
823.300, 0.168
823.400, 0.172
823.500, 0.149
823.600, 0.130
823.700, 0.182
823.800, 0.136
823.900, 0.154
824.000, 0.145
824.100, 0.159
824.200, 0.163
824.300, 0.154
824.400, 0.150
824.500, 0.166
824.600, 0.143
824.700, 0.142
824.800, 0.149
824.900, 0.152
825.000, 0.141
825.100, 0.148
825.200, 0.134
825.300, 0.138
825.400, 0.128
825.500, 0.140
825.600, 0.129
825.700, 0.167
825.800, 0.142
825.900, 0.150
826.000, 0.169
826.100, 0.157
826.200, 0.154
826.300, 0.188
826.400, 0.170
826.500, 0.168
826.600, 0.161
826.700, 0.165
826.800, 0.171
826.900, 0.167
827.000, 0.172
827.100, 0.179
827.200, 0.165
827.300, 0.163
827.400, 0.164
827.500, 0.152
827.600, 0.187
827.700, 0.175
827.800, 0.180
827.900, 0.178
828.000, 0.154
828.100, 0.170
828.200, 0.170
828.300, 0.175
828.400, 0.170
828.500, 0.178
828.600, 0.172
828.700, 0.150
828.800, 0.148
828.900, 0.154
829.000, 0.189
829.100, 0.160
829.200, 0.175
829.300, 0.171
829.400, 0.182
829.500, 0.177
829.600, 0.166
829.700, 0.165
829.800, 0.161
829.900, 0.152
830.000, 0.138
830.100, 0.147
830.200, 0.135
830.300, 0.152
830.400, 0.135
830.500, 0.133
830.600, 0.155
830.700, 0.170
830.800, 0.162
830.900, 0.189
831.000, 0.174
831.100, 0.189
831.200, 0.179
831.300, 0.169
831.400, 0.155
831.500, 0.142
831.600, 0.178
831.700, 0.176
831.800, 0.171
831.900, 0.170
832.000, 0.161
832.100, 0.188
832.200, 0.194
832.300, 0.153
832.400, 0.137
832.500, 0.133
832.600, 0.150
832.700, 0.171
832.800, 0.152
832.900, 0.148
833.000, 0.157
833.100, 0.189
833.200, 0.164
833.300, 0.155
833.400, 0.172
833.500, 0.168
833.600, 0.163
833.700, 0.172
833.800, 0.174
833.900, 0.170
834.000, 0.160
834.100, 0.130
834.200, 0.144
834.300, 0.133
834.400, 0.139
834.500, 0.163
834.600, 0.164
834.700, 0.160
834.800, 0.182
834.900, 0.172
835.000, 0.177
835.100, 0.158
835.200, 0.193
835.300, 0.177
835.400, 0.175
835.500, 0.175
835.600, 0.174
835.700, 0.166
835.800, 0.186
835.900, 0.155
836.000, 0.166
836.100, 0.191
836.200, 0.141
836.300, 0.163
836.400, 0.178
836.500, 0.167
836.600, 0.167
836.700, 0.177
836.800, 0.167
836.900, 0.150
837.000, 0.138
837.100, 0.136
837.200, 0.158
837.300, 0.136
837.400, 0.155
837.500, 0.158
837.600, 0.148
837.700, 0.151
837.800, 0.151
837.900, 0.150
838.000, 0.145
838.100, 0.134
838.200, 0.158
838.300, 0.147
838.400, 0.172
838.500, 0.162
838.600, 0.171
838.700, 0.177
838.800, 0.178
838.900, 0.150
839.000, 0.168
839.100, 0.162
839.200, 0.159
839.300, 0.158
839.400, 0.175
839.500, 0.161
839.600, 0.167
839.700, 0.140
839.800, 0.174
839.900, 0.180
840.000, 0.180
840.100, 0.172
840.200, 0.185
840.300, 0.160
840.400, 0.151
840.500, 0.165
840.600, 0.153
840.700, 0.184
840.800, 0.203
840.900, 0.198
841.000, 0.217
841.100, 0.237
841.200, 0.211
841.300, 0.208
841.400, 0.197
841.500, 0.181
841.600, 0.198
841.700, 0.195
841.800, 0.177
841.900, 0.198
842.000, 0.235
842.100, 0.220
842.200, 0.213
842.300, 0.202
842.400, 0.182
842.500, 0.199
842.600, 0.207
842.700, 0.220
842.800, 0.198
842.900, 0.207
843.000, 0.209
843.100, 0.194
843.200, 0.187
843.300, 0.188
843.400, 0.184
843.500, 0.206
843.600, 0.208
843.700, 0.210
843.800, 0.203
843.900, 0.183
844.000, 0.189
844.100, 0.177
844.200, 0.181
844.300, 0.168
844.400, 0.191
844.500, 0.160
844.600, 0.180
844.700, 0.165
844.800, 0.150
844.900, 0.159
845.000, 0.150
845.100, 0.148
845.200, 0.147
845.300, 0.151
845.400, 0.160
845.500, 0.148
845.600, 0.138
845.700, 0.160
845.800, 0.157
845.900, 0.149
846.000, 0.146
846.100, 0.124
846.200, 0.157
846.300, 0.158
846.400, 0.158
846.500, 0.153
846.600, 0.133
846.700, 0.145
846.800, 0.142
846.900, 0.145
847.000, 0.167
847.100, 0.138
847.200, 0.165
847.300, 0.135
847.400, 0.154
847.500, 0.140
847.600, 0.159
847.700, 0.174
847.800, 0.162
847.900, 0.176
848.000, 0.147
848.100, 0.162
848.200, 0.168
848.300, 0.175
848.400, 0.176
848.500, 0.159
848.600, 0.146
848.700, 0.154
848.800, 0.148
848.900, 0.139
849.000, 0.141
849.100, 0.138
849.200, 0.133
849.300, 0.154
849.400, 0.165
849.500, 0.148
849.600, 0.148
849.700, 0.164
849.800, 0.151
849.900, 0.171
850.000, 0.164
850.100, 0.143
850.200, 0.144
850.300, 0.149
850.400, 0.134
850.500, 0.139
850.600, 0.140
850.700, 0.152
850.800, 0.163
850.900, 0.176
851.000, 0.147
851.100, 0.144
851.200, 0.146
851.300, 0.136
851.400, 0.147
851.500, 0.158
851.600, 0.155
851.700, 0.155
851.800, 0.147
851.900, 0.151
852.000, 0.201
852.100, 0.183
852.200, 0.166
852.300, 0.148
852.400, 0.162
852.500, 0.179
852.600, 0.170
852.700, 0.176
852.800, 0.150
852.900, 0.152
853.000, 0.141
853.100, 0.124
853.200, 0.154
853.300, 0.164
853.400, 0.190
853.500, 0.221
853.600, 0.180
853.700, 0.147
853.800, 0.179
853.900, 0.192
854.000, 0.187
854.100, 0.186
854.200, 0.171
854.300, 0.165
854.400, 0.169
854.500, 0.206
854.600, 0.220
854.700, 0.190
854.800, 0.214
854.900, 0.189
855.000, 0.167
855.100, 0.180
855.200, 0.178
855.300, 0.202
855.400, 0.185
855.500, 0.173
855.600, 0.205
855.700, 0.204
855.800, 0.198
855.900, 0.198
856.000, 0.205
856.100, 0.166
856.200, 0.211
856.300, 0.202
856.400, 0.176
856.500, 0.158
856.600, 0.167
856.700, 0.182
856.800, 0.168
856.900, 0.149
857.000, 0.167
857.100, 0.154
857.200, 0.149
857.300, 0.159
857.400, 0.164
857.500, 0.158
857.600, 0.174
857.700, 0.181
857.800, 0.182
857.900, 0.190
858.000, 0.167
858.100, 0.173
858.200, 0.172
858.300, 0.176
858.400, 0.192
858.500, 0.185
858.600, 0.172
858.700, 0.180
858.800, 0.184
858.900, 0.192
859.000, 0.181
859.100, 0.181
859.200, 0.189
859.300, 0.163
859.400, 0.164
859.500, 0.149
859.600, 0.159
859.700, 0.170
859.800, 0.205
859.900, 0.186
860.000, 0.210
860.100, 0.216
860.200, 0.182
860.300, 0.222
860.400, 0.187
860.500, 0.178
860.600, 0.160
860.700, 0.138
860.800, 0.179
860.900, 0.160
861.000, 0.154
861.100, 0.132
861.200, 0.131
861.300, 0.140
861.400, 0.188
861.500, 0.177
861.600, 0.181
861.700, 0.146
861.800, 0.150
861.900, 0.163
862.000, 0.181
862.100, 0.156
862.200, 0.151
862.300, 0.136
862.400, 0.142
862.500, 0.162
862.600, 0.153
862.700, 0.153
862.800, 0.169
862.900, 0.154
863.000, 0.141
863.100, 0.129
863.200, 0.171
863.300, 0.169
863.400, 0.176
863.500, 0.155
863.600, 0.145
863.700, 0.162
863.800, 0.148
863.900, 0.135
864.000, 0.154
864.100, 0.143
864.200, 0.138
864.300, 0.153
864.400, 0.177
864.500, 0.182
864.600, 0.178
864.700, 0.159
864.800, 0.158
864.900, 0.161
865.000, 0.177
865.100, 0.159
865.200, 0.148
865.300, 0.148
865.400, 0.172
865.500, 0.191
865.600, 0.177
865.700, 0.189
865.800, 0.170
865.900, 0.176
866.000, 0.181
866.100, 0.177
866.200, 0.197
866.300, 0.214
866.400, 0.189
866.500, 0.167
866.600, 0.191
866.700, 0.186
866.800, 0.221
866.900, 0.213
867.000, 0.187
867.100, 0.180
867.200, 0.176
867.300, 0.193
867.400, 0.190
867.500, 0.173
867.600, 0.192
867.700, 0.190
867.800, 0.205
867.900, 0.213
868.000, 0.215
868.100, 0.214
868.200, 0.235
868.300, 0.215
868.400, 0.196
868.500, 0.228
868.600, 0.188
868.700, 0.174
868.800, 0.181
868.900, 0.211
869.000, 0.161
869.100, 0.162
869.200, 0.176
869.300, 0.162
869.400, 0.169
869.500, 0.164
869.600, 0.167
869.700, 0.160
869.800, 0.163
869.900, 0.163
870.000, 0.172
870.100, 0.175
870.200, 0.179
870.300, 0.187
870.400, 0.180
870.500, 0.176
870.600, 0.177
870.700, 0.178
870.800, 0.174
870.900, 0.173
871.000, 0.173
871.100, 0.180
871.200, 0.176
871.300, 0.169
871.400, 0.160
871.500, 0.172
871.600, 0.163
871.700, 0.163
871.800, 0.175
871.900, 0.180
872.000, 0.159
872.100, 0.151
872.200, 0.175
872.300, 0.173
872.400, 0.184
872.500, 0.171
872.600, 0.178
872.700, 0.165
872.800, 0.158
872.900, 0.153
873.000, 0.165
873.100, 0.166
873.200, 0.154
873.300, 0.164
873.400, 0.165
873.500, 0.172
873.600, 0.163
873.700, 0.160
873.800, 0.158
873.900, 0.167
874.000, 0.167
874.100, 0.174
874.200, 0.163
874.300, 0.150
874.400, 0.163
874.500, 0.165
874.600, 0.151
874.700, 0.161
874.800, 0.166
874.900, 0.172
875.000, 0.159
875.100, 0.174
875.200, 0.223
875.300, 0.195
875.400, 0.200
875.500, 0.183
875.600, 0.212
875.700, 0.236
875.800, 0.193
875.900, 0.207
876.000, 0.176
876.100, 0.187
876.200, 0.173
876.300, 0.200
876.400, 0.186
876.500, 0.209
876.600, 0.190
876.700, 0.192
876.800, 0.186
876.900, 0.171
877.000, 0.180
877.100, 0.179
877.200, 0.200
877.300, 0.198
877.400, 0.197
877.500, 0.160
877.600, 0.153
877.700, 0.160
877.800, 0.157
877.900, 0.158
878.000, 0.168
878.100, 0.171
878.200, 0.169
878.300, 0.149
878.400, 0.153
878.500, 0.149
878.600, 0.157
878.700, 0.160
878.800, 0.153
878.900, 0.185
879.000, 0.164
879.100, 0.177
879.200, 0.140
879.300, 0.143
879.400, 0.155
879.500, 0.159
879.600, 0.180
879.700, 0.156
879.800, 0.171
879.900, 0.140
880.000, 0.131
880.100, 0.160
880.200, 0.154
880.300, 0.194
880.400, 0.242
880.500, 0.222
880.600, 0.233
880.700, 0.227
880.800, 0.215
880.900, 0.233
881.000, 0.207
881.100, 0.180
881.200, 0.201
881.300, 0.215
881.400, 0.257
881.500, 0.242
881.600, 0.231
881.700, 0.231
881.800, 0.198
881.900, 0.234
882.000, 0.265
882.100, 0.259
882.200, 0.254
882.300, 0.277
882.400, 0.274
882.500, 0.284
882.600, 0.265
882.700, 0.269
882.800, 0.294
882.900, 0.284
883.000, 0.314
883.100, 0.287
883.200, 0.308
883.300, 0.293
883.400, 0.327
883.500, 0.329
883.600, 0.314
883.700, 0.315
883.800, 0.289
883.900, 0.279
884.000, 0.284
884.100, 0.267
884.200, 0.261
884.300, 0.266
884.400, 0.286
884.500, 0.297
884.600, 0.289
884.700, 0.279
884.800, 0.227
884.900, 0.201
885.000, 0.207
885.100, 0.227
885.200, 0.265
885.300, 0.224
885.400, 0.188
885.500, 0.188
885.600, 0.187
885.700, 0.198
885.800, 0.194
885.900, 0.206
886.000, 0.168
886.100, 0.157
886.200, 0.162
886.300, 0.165
886.400, 0.187
886.500, 0.174
886.600, 0.168
886.700, 0.189
886.800, 0.170
886.900, 0.157
887.000, 0.168
887.100, 0.180
887.200, 0.169
887.300, 0.163
887.400, 0.136
887.500, 0.134
887.600, 0.137
887.700, 0.171
887.800, 0.176
887.900, 0.194
888.000, 0.199
888.100, 0.217
888.200, 0.177
888.300, 0.157
888.400, 0.173
888.500, 0.190
888.600, 0.152
888.700, 0.175
888.800, 0.154
888.900, 0.151
889.000, 0.156
889.100, 0.157
889.200, 0.186
889.300, 0.186
889.400, 0.187
889.500, 0.157
889.600, 0.177
889.700, 0.224
889.800, 0.214
889.900, 0.193
890.000, 0.227
890.100, 0.220
890.200, 0.208
890.300, 0.196
890.400, 0.216
890.500, 0.202
890.600, 0.200
890.700, 0.185
890.800, 0.211
890.900, 0.200
891.000, 0.184
891.100, 0.158
891.200, 0.169
891.300, 0.177
891.400, 0.180
891.500, 0.189
891.600, 0.200
891.700, 0.206
891.800, 0.201
891.900, 0.179
892.000, 0.189
892.100, 0.210
892.200, 0.230
892.300, 0.219
892.400, 0.221
892.500, 0.215
892.600, 0.232
892.700, 0.228
892.800, 0.257
892.900, 0.250
893.000, 0.258
893.100, 0.228
893.200, 0.228
893.300, 0.243
893.400, 0.229
893.500, 0.193
893.600, 0.220
893.700, 0.223
893.800, 0.219
893.900, 0.265
894.000, 0.226
894.100, 0.219
894.200, 0.212
894.300, 0.219
894.400, 0.202
894.500, 0.206
894.600, 0.238
894.700, 0.251
894.800, 0.247
894.900, 0.209
895.000, 0.217
895.100, 0.216
895.200, 0.231
895.300, 0.245
895.400, 0.225
895.500, 0.258
895.600, 0.225
895.700, 0.240
895.800, 0.231
895.900, 0.239
896.000, 0.252
896.100, 0.286
896.200, 0.295
896.300, 0.292
896.400, 0.280
896.500, 0.324
896.600, 0.314
896.700, 0.322
896.800, 0.305
896.900, 0.335
897.000, 0.301
897.100, 0.332
897.200, 0.268
897.300, 0.264
897.400, 0.300
897.500, 0.279
897.600, 0.286
897.700, 0.311
897.800, 0.312
897.900, 0.320
898.000, 0.329
898.100, 0.289
898.200, 0.318
898.300, 0.327
898.400, 0.315
898.500, 0.294
898.600, 0.281
898.700, 0.293
898.800, 0.261
898.900, 0.324
899.000, 0.271
899.100, 0.259
899.200, 0.263
899.300, 0.273
899.400, 0.286
899.500, 0.290
899.600, 0.296
899.700, 0.285
899.800, 0.284
899.900, 0.283
900.000, 0.260
900.100, 0.272
900.200, 0.258
900.300, 0.308
900.400, 0.265
900.500, 0.249
900.600, 0.266
900.700, 0.272
900.800, 0.279
900.900, 0.213
901.000, 0.224
901.100, 0.266
901.200, 0.288
901.300, 0.265
901.400, 0.268
901.500, 0.248
901.600, 0.250
901.700, 0.262
901.800, 0.295
901.900, 0.275
902.000, 0.290
902.100, 0.289
902.200, 0.270
902.300, 0.262
902.400, 0.235
902.500, 0.251
902.600, 0.256
902.700, 0.252
902.800, 0.281
902.900, 0.318
903.000, 0.293
903.100, 0.307
903.200, 0.298
903.300, 0.293
903.400, 0.311
903.500, 0.322
903.600, 0.314
903.700, 0.301
903.800, 0.295
903.900, 0.317
904.000, 0.293
904.100, 0.262
904.200, 0.305
904.300, 0.340
904.400, 0.296
904.500, 0.277
904.600, 0.277
904.700, 0.255
904.800, 0.223
904.900, 0.241
905.000, 0.266
905.100, 0.252
905.200, 0.265
905.300, 0.257
905.400, 0.246
905.500, 0.249
905.600, 0.296
905.700, 0.265
905.800, 0.285
905.900, 0.263
906.000, 0.271
906.100, 0.300
906.200, 0.299
906.300, 0.290
906.400, 0.258
906.500, 0.268
906.600, 0.284
906.700, 0.300
906.800, 0.296
906.900, 0.325
907.000, 0.281
907.100, 0.282
907.200, 0.305
907.300, 0.251
907.400, 0.250
907.500, 0.268
907.600, 0.257
907.700, 0.263
907.800, 0.244
907.900, 0.272
908.000, 0.271
908.100, 0.277
908.200, 0.278
908.300, 0.260
908.400, 0.255
908.500, 0.248
908.600, 0.253
908.700, 0.278
908.800, 0.291
908.900, 0.264
909.000, 0.287
909.100, 0.280
909.200, 0.293
909.300, 0.272
909.400, 0.247
909.500, 0.281
909.600, 0.263
909.700, 0.278
909.800, 0.246
909.900, 0.275
910.000, 0.262
910.100, 0.289
910.200, 0.276
910.300, 0.305
910.400, 0.275
910.500, 0.304
910.600, 0.280
910.700, 0.275
910.800, 0.277
910.900, 0.303
911.000, 0.271
911.100, 0.248
911.200, 0.291
911.300, 0.281
911.400, 0.307
911.500, 0.291
911.600, 0.289
911.700, 0.270
911.800, 0.268
911.900, 0.288
912.000, 0.274
912.100, 0.263
912.200, 0.258
912.300, 0.258
912.400, 0.278
912.500, 0.276
912.600, 0.242
912.700, 0.258
912.800, 0.256
912.900, 0.282
913.000, 0.269
913.100, 0.279
913.200, 0.280
913.300, 0.291
913.400, 0.302
913.500, 0.309
913.600, 0.292
913.700, 0.307
913.800, 0.274
913.900, 0.298
914.000, 0.277
914.100, 0.283
914.200, 0.277
914.300, 0.283
914.400, 0.256
914.500, 0.255
914.600, 0.279
914.700, 0.282
914.800, 0.286
914.900, 0.297
915.000, 0.301
915.100, 0.311
915.200, 0.260
915.300, 0.287
915.400, 0.257
915.500, 0.282
915.600, 0.291
915.700, 0.281
915.800, 0.271
915.900, 0.320
916.000, 0.291
916.100, 0.310
916.200, 0.323
916.300, 0.331
916.400, 0.307
916.500, 0.296
916.600, 0.301
916.700, 0.265
916.800, 0.307
916.900, 0.281
917.000, 0.288
917.100, 0.287
917.200, 0.275
917.300, 0.300
917.400, 0.294
917.500, 0.293
917.600, 0.297
917.700, 0.301
917.800, 0.293
917.900, 0.282
918.000, 0.306
918.100, 0.316
918.200, 0.316
918.300, 0.338
918.400, 0.291
918.500, 0.314
918.600, 0.305
918.700, 0.296
918.800, 0.283
918.900, 0.302
919.000, 0.321
919.100, 0.315
919.200, 0.317
919.300, 0.323
919.400, 0.312
919.500, 0.305
919.600, 0.307
919.700, 0.309
919.800, 0.308
919.900, 0.305
920.000, 0.279
920.100, 0.277
920.200, 0.237
920.300, 0.219
920.400, 0.258
920.500, 0.274
920.600, 0.273
920.700, 0.279
920.800, 0.254
920.900, 0.276
921.000, 0.274
921.100, 0.288
921.200, 0.293
921.300, 0.289
921.400, 0.265
921.500, 0.308
921.600, 0.311
921.700, 0.317
921.800, 0.318
921.900, 0.337
922.000, 0.338
922.100, 0.335
922.200, 0.271
922.300, 0.281
922.400, 0.270
922.500, 0.291
922.600, 0.287
922.700, 0.273
922.800, 0.282
922.900, 0.273
923.000, 0.274
923.100, 0.257
923.200, 0.221
923.300, 0.236
923.400, 0.248
923.500, 0.256
923.600, 0.250
923.700, 0.263
923.800, 0.251
923.900, 0.269
924.000, 0.271
924.100, 0.296
924.200, 0.272
924.300, 0.312
924.400, 0.259
924.500, 0.262
924.600, 0.301
924.700, 0.291
924.800, 0.284
924.900, 0.251
925.000, 0.233
925.100, 0.241
925.200, 0.289
925.300, 0.274
925.400, 0.285
925.500, 0.287
925.600, 0.270
925.700, 0.283
925.800, 0.264
925.900, 0.245
926.000, 0.282
926.100, 0.277
926.200, 0.273
926.300, 0.266
926.400, 0.255
926.500, 0.287
926.600, 0.298
926.700, 0.279
926.800, 0.245
926.900, 0.234
927.000, 0.212
927.100, 0.206
927.200, 0.221
927.300, 0.243
927.400, 0.226
927.500, 0.203
927.600, 0.242
927.700, 0.245
927.800, 0.247
927.900, 0.276
928.000, 0.251
928.100, 0.258
928.200, 0.244
928.300, 0.193
928.400, 0.164
928.500, 0.150
928.600, 0.148
928.700, 0.189
928.800, 0.207
928.900, 0.176
929.000, 0.212
929.100, 0.235
929.200, 0.237
929.300, 0.232
929.400, 0.228
929.500, 0.198
929.600, 0.211
929.700, 0.219
929.800, 0.193
929.900, 0.195
930.000, 0.206
930.100, 0.239
930.200, 0.222
930.300, 0.222
930.400, 0.220
930.500, 0.227
930.600, 0.236
930.700, 0.211
930.800, 0.179
930.900, 0.165
931.000, 0.194
931.100, 0.232
931.200, 0.176
931.300, 0.192
931.400, 0.217
931.500, 0.185
931.600, 0.185
931.700, 0.174
931.800, 0.157
931.900, 0.153
932.000, 0.174
932.100, 0.151
932.200, 0.189
932.300, 0.175
932.400, 0.202
932.500, 0.208
932.600, 0.223
932.700, 0.240
932.800, 0.250
932.900, 0.206
933.000, 0.196
933.100, 0.226
933.200, 0.229
933.300, 0.216
933.400, 0.261
933.500, 0.239
933.600, 0.258
933.700, 0.271
933.800, 0.243
933.900, 0.241
934.000, 0.239
934.100, 0.242
934.200, 0.241
934.300, 0.240
934.400, 0.231
934.500, 0.224
934.600, 0.228
934.700, 0.244
934.800, 0.245
934.900, 0.184
935.000, 0.154
935.100, 0.154
935.200, 0.169
935.300, 0.148
935.400, 0.138
935.500, 0.177
935.600, 0.170
935.700, 0.153
935.800, 0.164
935.900, 0.179
936.000, 0.143
936.100, 0.152
936.200, 0.157
936.300, 0.171
936.400, 0.160
936.500, 0.138
936.600, 0.142
936.700, 0.135
936.800, 0.136
936.900, 0.132
937.000, 0.139
937.100, 0.135
937.200, 0.140
937.300, 0.124
937.400, 0.148
937.500, 0.147
937.600, 0.153
937.700, 0.149
937.800, 0.154
937.900, 0.138
938.000, 0.137
938.100, 0.144
938.200, 0.136
938.300, 0.139
938.400, 0.134
938.500, 0.141
938.600, 0.136
938.700, 0.147
938.800, 0.187
938.900, 0.210
939.000, 0.168
939.100, 0.177
939.200, 0.178
939.300, 0.168
939.400, 0.172
939.500, 0.206
939.600, 0.190
939.700, 0.190
939.800, 0.192
939.900, 0.216
940.000, 0.190
940.100, 0.171
940.200, 0.174
940.300, 0.193
940.400, 0.178
940.500, 0.188
940.600, 0.190
940.700, 0.219
940.800, 0.179
940.900, 0.169
941.000, 0.195
941.100, 0.180
941.200, 0.183
941.300, 0.202
941.400, 0.192
941.500, 0.192
941.600, 0.178
941.700, 0.171
941.800, 0.200
941.900, 0.204
942.000, 0.184
942.100, 0.200
942.200, 0.199
942.300, 0.157
942.400, 0.161
942.500, 0.135
942.600, 0.164
942.700, 0.171
942.800, 0.172
942.900, 0.161
943.000, 0.181
943.100, 0.201
943.200, 0.191
943.300, 0.196
943.400, 0.169
943.500, 0.135
943.600, 0.151
943.700, 0.136
943.800, 0.128
943.900, 0.169
944.000, 0.178
944.100, 0.163
944.200, 0.164
944.300, 0.163
944.400, 0.171
944.500, 0.166
944.600, 0.160
944.700, 0.166
944.800, 0.150
944.900, 0.148
945.000, 0.169
945.100, 0.166
945.200, 0.179
945.300, 0.181
945.400, 0.152
945.500, 0.152
945.600, 0.171
945.700, 0.146
945.800, 0.151
945.900, 0.164
946.000, 0.158
946.100, 0.158
946.200, 0.171
946.300, 0.196
946.400, 0.165
946.500, 0.163
946.600, 0.171
946.700, 0.142
946.800, 0.171
946.900, 0.215
947.000, 0.182
947.100, 0.161
947.200, 0.168
947.300, 0.152
947.400, 0.136
947.500, 0.143
947.600, 0.150
947.700, 0.152
947.800, 0.153
947.900, 0.153
948.000, 0.149
948.100, 0.137
948.200, 0.141
948.300, 0.166
948.400, 0.156
948.500, 0.152
948.600, 0.144
948.700, 0.164
948.800, 0.146
948.900, 0.135
949.000, 0.150
949.100, 0.142
949.200, 0.138
949.300, 0.159
949.400, 0.171
949.500, 0.127
949.600, 0.137
949.700, 0.137
949.800, 0.154
949.900, 0.155
950.000, 0.168
950.100, 0.154
950.200, 0.147
950.300, 0.171
950.400, 0.169
950.500, 0.169
950.600, 0.161
950.700, 0.164
950.800, 0.143
950.900, 0.149
951.000, 0.149
951.100, 0.151
951.200, 0.152
951.300, 0.140
951.400, 0.165
951.500, 0.154
951.600, 0.183
951.700, 0.181
951.800, 0.175
951.900, 0.146
952.000, 0.140
952.100, 0.141
952.200, 0.157
952.300, 0.143
952.400, 0.131
952.500, 0.136
952.600, 0.152
952.700, 0.165
952.800, 0.160
952.900, 0.169
953.000, 0.153
953.100, 0.159
953.200, 0.142
953.300, 0.143
953.400, 0.128
953.500, 0.152
953.600, 0.169
953.700, 0.138
953.800, 0.144
953.900, 0.151
954.000, 0.168
954.100, 0.158
954.200, 0.137
954.300, 0.135
954.400, 0.120
954.500, 0.127
954.600, 0.125
954.700, 0.134
954.800, 0.146
954.900, 0.141
955.000, 0.153
955.100, 0.154
955.200, 0.123
955.300, 0.137
955.400, 0.129
955.500, 0.140
955.600, 0.143
955.700, 0.139
955.800, 0.151
955.900, 0.149
956.000, 0.142
956.100, 0.149
956.200, 0.142
956.300, 0.152
956.400, 0.166
956.500, 0.148
956.600, 0.137
956.700, 0.139
956.800, 0.126
956.900, 0.151
957.000, 0.117
957.100, 0.144
957.200, 0.103
957.300, 0.113
957.400, 0.140
957.500, 0.140
957.600, 0.129
957.700, 0.130
957.800, 0.111
957.900, 0.120
958.000, 0.126
958.100, 0.131
958.200, 0.154
958.300, 0.135
958.400, 0.136
958.500, 0.135
958.600, 0.135
958.700, 0.132
958.800, 0.154
958.900, 0.135
959.000, 0.111
959.100, 0.124
959.200, 0.118
959.300, 0.116
959.400, 0.118
959.500, 0.118
959.600, 0.120
959.700, 0.112
959.800, 0.115
959.900, 0.106
960.000, 0.122
960.100, 0.115
960.200, 0.122
960.300, 0.122
960.400, 0.116
960.500, 0.130
960.600, 0.144
960.700, 0.140
960.800, 0.124
960.900, 0.139
961.000, 0.129
961.100, 0.136
961.200, 0.128
961.300, 0.138
961.400, 0.133
961.500, 0.142
961.600, 0.149
961.700, 0.194
961.800, 0.166
961.900, 0.144
962.000, 0.160
962.100, 0.162
962.200, 0.155
962.300, 0.175
962.400, 0.143
962.500, 0.154
962.600, 0.151
962.700, 0.122
962.800, 0.137
962.900, 0.145
963.000, 0.126
963.100, 0.154
963.200, 0.143
963.300, 0.151
963.400, 0.133
963.500, 0.150
963.600, 0.155
963.700, 0.173
963.800, 0.177
963.900, 0.175
964.000, 0.165
964.100, 0.154
964.200, 0.159
964.300, 0.127
964.400, 0.144
964.500, 0.137
964.600, 0.146
964.700, 0.149
964.800, 0.148
964.900, 0.148
965.000, 0.140
965.100, 0.149
965.200, 0.146
965.300, 0.151
965.400, 0.152
965.500, 0.142
965.600, 0.147
965.700, 0.157
965.800, 0.162
965.900, 0.135
966.000, 0.137
966.100, 0.129
966.200, 0.130
966.300, 0.134
966.400, 0.125
966.500, 0.136
966.600, 0.144
966.700, 0.137
966.800, 0.144
966.900, 0.147
967.000, 0.149
967.100, 0.138
967.200, 0.132
967.300, 0.135
967.400, 0.157
967.500, 0.153
967.600, 0.178
967.700, 0.167
967.800, 0.166
967.900, 0.162
968.000, 0.151
968.100, 0.151
968.200, 0.167
968.300, 0.161
968.400, 0.179
968.500, 0.140
968.600, 0.163
968.700, 0.144
968.800, 0.151
968.900, 0.159
969.000, 0.171
969.100, 0.174
969.200, 0.164
969.300, 0.169
969.400, 0.167
969.500, 0.153
969.600, 0.135
969.700, 0.148
969.800, 0.152
969.900, 0.160
970.000, 0.140
970.100, 0.141
970.200, 0.141
970.300, 0.163
970.400, 0.141
970.500, 0.158
970.600, 0.146
970.700, 0.130
970.800, 0.133
970.900, 0.131
971.000, 0.132
971.100, 0.153
971.200, 0.165
971.300, 0.174
971.400, 0.193
971.500, 0.182
971.600, 0.165
971.700, 0.161
971.800, 0.167
971.900, 0.185
972.000, 0.167
972.100, 0.169
972.200, 0.177
972.300, 0.185
972.400, 0.169
972.500, 0.193
972.600, 0.199
972.700, 0.151
972.800, 0.183
972.900, 0.169
973.000, 0.170
973.100, 0.192
973.200, 0.202
973.300, 0.156
973.400, 0.170
973.500, 0.161
973.600, 0.169
973.700, 0.186
973.800, 0.159
973.900, 0.159
974.000, 0.145
974.100, 0.137
974.200, 0.143
974.300, 0.143
974.400, 0.171
974.500, 0.170
974.600, 0.152
974.700, 0.157
974.800, 0.198
974.900, 0.183
975.000, 0.176
975.100, 0.157
975.200, 0.155
975.300, 0.158
975.400, 0.158
975.500, 0.146
975.600, 0.146
975.700, 0.143
975.800, 0.150
975.900, 0.123
976.000, 0.125
976.100, 0.153
976.200, 0.164
976.300, 0.161
976.400, 0.181
976.500, 0.173
976.600, 0.160
976.700, 0.175
976.800, 0.153
976.900, 0.175
977.000, 0.165
977.100, 0.155
977.200, 0.145
977.300, 0.162
977.400, 0.149
977.500, 0.151
977.600, 0.152
977.700, 0.152
977.800, 0.144
977.900, 0.161
978.000, 0.151
978.100, 0.156
978.200, 0.182
978.300, 0.194
978.400, 0.174
978.500, 0.178
978.600, 0.146
978.700, 0.156
978.800, 0.143
978.900, 0.141
979.000, 0.139
979.100, 0.138
979.200, 0.156
979.300, 0.160
979.400, 0.157
979.500, 0.152
979.600, 0.142
979.700, 0.125
979.800, 0.150
979.900, 0.141
980.000, 0.139
980.100, 0.145
980.200, 0.128
980.300, 0.150
980.400, 0.138
980.500, 0.153
980.600, 0.139
980.700, 0.134
980.800, 0.146
980.900, 0.130
981.000, 0.135
981.100, 0.142
981.200, 0.126
981.300, 0.139
981.400, 0.139
981.500, 0.155
981.600, 0.174
981.700, 0.157
981.800, 0.195
981.900, 0.165
982.000, 0.167
982.100, 0.185
982.200, 0.174
982.300, 0.183
982.400, 0.161
982.500, 0.174
982.600, 0.162
982.700, 0.149
982.800, 0.163
982.900, 0.146
983.000, 0.165
983.100, 0.159
983.200, 0.164
983.300, 0.162
983.400, 0.154
983.500, 0.161
983.600, 0.170
983.700, 0.171
983.800, 0.182
983.900, 0.154
984.000, 0.161
984.100, 0.163
984.200, 0.153
984.300, 0.148
984.400, 0.153
984.500, 0.143
984.600, 0.125
984.700, 0.165
984.800, 0.182
984.900, 0.172
985.000, 0.158
985.100, 0.151
985.200, 0.163
985.300, 0.150
985.400, 0.160
985.500, 0.165
985.600, 0.147
985.700, 0.168
985.800, 0.156
985.900, 0.149
986.000, 0.137
986.100, 0.159
986.200, 0.137
986.300, 0.138
986.400, 0.141
986.500, 0.139
986.600, 0.142
986.700, 0.138
986.800, 0.157
986.900, 0.163
987.000, 0.154
987.100, 0.139
987.200, 0.141
987.300, 0.137
987.400, 0.137
987.500, 0.137
987.600, 0.143
987.700, 0.130
987.800, 0.151
987.900, 0.142
988.000, 0.135
988.100, 0.120
988.200, 0.127
988.300, 0.134
988.400, 0.145
988.500, 0.125
988.600, 0.136
988.700, 0.146
988.800, 0.143
988.900, 0.147
989.000, 0.152
989.100, 0.161
989.200, 0.153
989.300, 0.140
989.400, 0.150
989.500, 0.161
989.600, 0.146
989.700, 0.145
989.800, 0.157
989.900, 0.165
990.000, 0.174
990.100, 0.163
990.200, 0.163
990.300, 0.177
990.400, 0.186
990.500, 0.169
990.600, 0.176
990.700, 0.159
990.800, 0.141
990.900, 0.142
991.000, 0.136
991.100, 0.145
991.200, 0.136
991.300, 0.137
991.400, 0.122
991.500, 0.153
991.600, 0.142
991.700, 0.143
991.800, 0.136
991.900, 0.159
992.000, 0.150
992.100, 0.130
992.200, 0.133
992.300, 0.145
992.400, 0.150
992.500, 0.138
992.600, 0.129
992.700, 0.142
992.800, 0.144
992.900, 0.118
993.000, 0.118
993.100, 0.105
993.200, 0.133
993.300, 0.105
993.400, 0.102
993.500, 0.118
993.600, 0.113
993.700, 0.115
993.800, 0.106
993.900, 0.112
994.000, 0.100
994.100, 0.121
994.200, 0.133
994.300, 0.151
994.400, 0.113
994.500, 0.139
994.600, 0.140
994.700, 0.149
994.800, 0.160
994.900, 0.150
995.000, 0.118
995.100, 0.129
995.200, 0.121
995.300, 0.129
995.400, 0.112
995.500, 0.122
995.600, 0.105
995.700, 0.126
995.800, 0.119
995.900, 0.140
996.000, 0.154
996.100, 0.164
996.200, 0.132
996.300, 0.144
996.400, 0.147
996.500, 0.146
996.600, 0.123
996.700, 0.137
996.800, 0.111
996.900, 0.135
997.000, 0.148
997.100, 0.148
997.200, 0.119
997.300, 0.114
997.400, 0.106
997.500, 0.123
997.600, 0.130
997.700, 0.115
997.800, 0.135
997.900, 0.128
998.000, 0.109
998.100, 0.115
998.200, 0.121
998.300, 0.124
998.400, 0.101
998.500, 0.105
998.600, 0.100
998.700, 0.094
998.800, 0.093
998.900, 0.115
999.000, 0.106
999.100, 0.098
999.200, 0.098
999.300, 0.086
999.400, 0.092
999.500, 0.077
999.600, 0.084
999.700, 0.079
999.800, 0.079
999.900, 0.010
1000.000, 0.001
