Residue, (nm)
6.000, 0.234
7.000, 0.138
8.000, 0.072
9.000, 0.050
10.000, 0.045
11.000, 0.044
12.000, 0.043
13.000, 0.053
14.000, 0.047
15.000, 0.044
16.000, 0.049
17.000, 0.049
18.000, 0.050
19.000, 0.068
20.000, 0.076
21.000, 0.078
22.000, 0.080
23.000, 0.067
24.000, 0.057
25.000, 0.066
26.000, 0.065
27.000, 0.060
28.000, 0.066
29.000, 0.069
30.000, 0.063
31.000, 0.059
32.000, 0.073
33.000, 0.080
34.000, 0.066
35.000, 0.056
36.000, 0.049
37.000, 0.043
38.000, 0.044
39.000, 0.042
40.000, 0.040
41.000, 0.044
42.000, 0.043
43.000, 0.049
44.000, 0.050
45.000, 0.052
46.000, 0.053
47.000, 0.062
48.000, 0.086
49.000, 0.098
50.000, 0.082
51.000, 0.078
52.000, 0.076
53.000, 0.075
54.000, 0.067
55.000, 0.071
56.000, 0.063
57.000, 0.067
58.000, 0.062
59.000, 0.053
60.000, 0.061
61.000, 0.058
62.000, 0.054
63.000, 0.053
64.000, 0.054
65.000, 0.051
66.000, 0.070
67.000, 0.137
68.000, 0.202
69.000, 0.190
70.000, 0.152
71.000, 0.104
72.000, 0.065
73.000, 0.053
74.000, 0.044
75.000, 0.042
76.000, 0.040
77.000, 0.042
78.000, 0.048
79.000, 0.057
80.000, 0.086
81.000, 0.081
82.000, 0.091
83.000, 0.158
84.000, 0.158
85.000, 0.132
86.000, 0.126
87.000, 0.118
88.000, 0.099
89.000, 0.077
90.000, 0.062
91.000, 0.059
92.000, 0.065
93.000, 0.089
94.000, 0.083
95.000, 0.072
96.000, 0.054
97.000, 0.042
98.000, 0.038
99.000, 0.050
100.000, 0.057
101.000, 0.057
102.000, 0.066
103.000, 0.086
104.000, 0.122
105.000, 0.145
106.000, 0.129
107.000, 0.107
108.000, 0.083
109.000, 0.057
110.000, 0.043
111.000, 0.040
112.000, 0.037
113.000, 0.037
114.000, 0.043
115.000, 0.049
116.000, 0.062
117.000, 0.086
118.000, 0.114
119.000, 0.157
120.000, 0.167
121.000, 0.098
122.000, 0.080
123.000, 0.075
124.000, 0.072
125.000, 0.070
126.000, 0.083
127.000, 0.085
128.000, 0.076
129.000, 0.085
130.000, 0.099
131.000, 0.094
132.000, 0.076
133.000, 0.091
134.000, 0.090
135.000, 0.078
136.000, 0.074
137.000, 0.070
138.000, 0.069
139.000, 0.051
140.000, 0.042
141.000, 0.039
142.000, 0.040
143.000, 0.040
144.000, 0.047
145.000, 0.070
146.000, 0.078
147.000, 0.093
148.000, 0.056
149.000, 0.056
150.000, 0.050
151.000, 0.052
152.000, 0.059
153.000, 0.060
154.000, 0.051
155.000, 0.059
156.000, 0.081
157.000, 0.097
158.000, 0.083
159.000, 0.094
160.000, 0.092
161.000, 0.076
162.000, 0.076
163.000, 0.076
164.000, 0.073
165.000, 0.062
166.000, 0.063
167.000, 0.067
168.000, 0.060
169.000, 0.056
170.000, 0.064
171.000, 0.065
172.000, 0.055
173.000, 0.063
174.000, 0.074
175.000, 0.067
176.000, 0.056
177.000, 0.045
178.000, 0.039
179.000, 0.037
180.000, 0.042
181.000, 0.043
182.000, 0.048
183.000, 0.054
184.000, 0.063
185.000, 0.067
186.000, 0.098
187.000, 0.114
188.000, 0.112
189.000, 0.146
190.000, 0.106
191.000, 0.060
192.000, 0.049
193.000, 0.055
194.000, 0.088
195.000, 0.157
196.000, 0.228
197.000, 0.287
198.000, 0.250
199.000, 0.188
200.000, 0.111
201.000, 0.066
202.000, 0.051
203.000, 0.049
204.000, 0.061
205.000, 0.056
206.000, 0.039
207.000, 0.040
208.000, 0.039
209.000, 0.042
210.000, 0.044
211.000, 0.053
212.000, 0.060
213.000, 0.059
214.000, 0.063
215.000, 0.069
216.000, 0.059
217.000, 0.059
218.000, 0.057
219.000, 0.050
220.000, 0.047
221.000, 0.046
222.000, 0.050
223.000, 0.059
224.000, 0.073
225.000, 0.068
226.000, 0.085
227.000, 0.087
228.000, 0.067
229.000, 0.068
230.000, 0.053
231.000, 0.053
232.000, 0.045
233.000, 0.045
234.000, 0.048
235.000, 0.043
236.000, 0.041
237.000, 0.054
238.000, 0.091
