Residue, (nm)
6.000, 0.236
7.000, 0.125
8.000, 0.059
9.000, 0.043
10.000, 0.040
11.000, 0.038
12.000, 0.038
13.000, 0.039
14.000, 0.039
15.000, 0.044
16.000, 0.057
17.000, 0.052
18.000, 0.054
19.000, 0.075
20.000, 0.075
21.000, 0.075
22.000, 0.070
23.000, 0.060
24.000, 0.054
25.000, 0.058
26.000, 0.057
27.000, 0.054
28.000, 0.060
29.000, 0.062
30.000, 0.057
31.000, 0.053
32.000, 0.066
33.000, 0.074
34.000, 0.063
35.000, 0.051
36.000, 0.046
37.000, 0.042
38.000, 0.042
39.000, 0.039
40.000, 0.035
41.000, 0.034
42.000, 0.033
43.000, 0.044
44.000, 0.048
45.000, 0.052
46.000, 0.058
47.000, 0.062
48.000, 0.077
49.000, 0.085
50.000, 0.074
51.000, 0.080
52.000, 0.078
53.000, 0.073
54.000, 0.066
55.000, 0.072
56.000, 0.062
57.000, 0.063
58.000, 0.053
59.000, 0.046
60.000, 0.054
61.000, 0.054
62.000, 0.048
63.000, 0.041
64.000, 0.043
65.000, 0.041
66.000, 0.051
67.000, 0.061
68.000, 0.072
69.000, 0.075
70.000, 0.075
71.000, 0.071
72.000, 0.052
73.000, 0.044
74.000, 0.037
75.000, 0.035
76.000, 0.035
77.000, 0.038
78.000, 0.042
79.000, 0.043
80.000, 0.051
81.000, 0.057
82.000, 0.061
83.000, 0.086
84.000, 0.100
85.000, 0.099
86.000, 0.086
87.000, 0.073
88.000, 0.062
89.000, 0.059
90.000, 0.049
91.000, 0.051
92.000, 0.048
93.000, 0.058
94.000, 0.055
95.000, 0.046
96.000, 0.041
97.000, 0.035
98.000, 0.035
99.000, 0.042
100.000, 0.046
101.000, 0.049
102.000, 0.066
103.000, 0.067
104.000, 0.105
105.000, 0.165
106.000, 0.157
107.000, 0.117
108.000, 0.077
109.000, 0.049
110.000, 0.042
111.000, 0.040
112.000, 0.037
113.000, 0.033
114.000, 0.036
115.000, 0.038
116.000, 0.045
117.000, 0.066
118.000, 0.102
119.000, 0.084
120.000, 0.074
121.000, 0.053
122.000, 0.050
123.000, 0.051
124.000, 0.051
125.000, 0.046
126.000, 0.049
127.000, 0.055
128.000, 0.057
129.000, 0.060
130.000, 0.066
131.000, 0.065
132.000, 0.059
133.000, 0.071
134.000, 0.072
135.000, 0.067
136.000, 0.066
137.000, 0.063
138.000, 0.058
139.000, 0.047
140.000, 0.039
141.000, 0.038
142.000, 0.040
143.000, 0.038
144.000, 0.037
145.000, 0.040
146.000, 0.041
147.000, 0.045
148.000, 0.046
149.000, 0.040
150.000, 0.040
151.000, 0.047
152.000, 0.050
153.000, 0.044
154.000, 0.037
155.000, 0.045
156.000, 0.062
157.000, 0.078
158.000, 0.070
159.000, 0.088
160.000, 0.086
161.000, 0.071
162.000, 0.073
163.000, 0.066
164.000, 0.055
165.000, 0.048
166.000, 0.052
167.000, 0.054
168.000, 0.048
169.000, 0.046
170.000, 0.054
171.000, 0.055
172.000, 0.049
173.000, 0.057
174.000, 0.066
175.000, 0.061
176.000, 0.051
177.000, 0.040
178.000, 0.036
179.000, 0.034
180.000, 0.037
181.000, 0.036
182.000, 0.038
183.000, 0.045
184.000, 0.047
185.000, 0.047
186.000, 0.061
187.000, 0.062
188.000, 0.053
189.000, 0.052
190.000, 0.048
191.000, 0.040
192.000, 0.038
193.000, 0.043
194.000, 0.059
195.000, 0.108
196.000, 0.152
197.000, 0.184
198.000, 0.159
199.000, 0.118
200.000, 0.067
201.000, 0.047
202.000, 0.038
203.000, 0.033
204.000, 0.033
205.000, 0.032
206.000, 0.032
207.000, 0.035
208.000, 0.037
209.000, 0.039
210.000, 0.038
211.000, 0.050
212.000, 0.061
213.000, 0.064
214.000, 0.066
215.000, 0.068
216.000, 0.054
217.000, 0.053
218.000, 0.052
219.000, 0.044
220.000, 0.040
221.000, 0.040
222.000, 0.045
223.000, 0.053
224.000, 0.074
225.000, 0.093
226.000, 0.072
227.000, 0.059
228.000, 0.049
229.000, 0.048
230.000, 0.039
231.000, 0.038
232.000, 0.038
233.000, 0.036
234.000, 0.037
235.000, 0.038
236.000, 0.038
237.000, 0.052
238.000, 0.087
