Residue, (nm)
6.000, 0.117
7.000, 0.074
8.000, 0.048
9.000, 0.041
10.000, 0.042
11.000, 0.040
12.000, 0.037
13.000, 0.036
14.000, 0.040
15.000, 0.044
16.000, 0.052
17.000, 0.050
18.000, 0.055
19.000, 0.073
20.000, 0.078
21.000, 0.079
22.000, 0.079
23.000, 0.067
24.000, 0.055
25.000, 0.060
26.000, 0.057
27.000, 0.053
28.000, 0.062
29.000, 0.061
30.000, 0.056
31.000, 0.056
32.000, 0.069
33.000, 0.076
34.000, 0.064
35.000, 0.055
36.000, 0.048
37.000, 0.041
38.000, 0.040
39.000, 0.038
40.000, 0.036
41.000, 0.033
42.000, 0.033
43.000, 0.038
44.000, 0.042
45.000, 0.046
46.000, 0.052
47.000, 0.067
48.000, 0.110
49.000, 0.129
50.000, 0.093
51.000, 0.103
52.000, 0.096
53.000, 0.097
54.000, 0.100
55.000, 0.114
56.000, 0.100
57.000, 0.104
58.000, 0.094
59.000, 0.064
60.000, 0.063
61.000, 0.052
62.000, 0.049
63.000, 0.041
64.000, 0.046
65.000, 0.044
66.000, 0.066
67.000, 0.102
68.000, 0.117
69.000, 0.089
70.000, 0.082
71.000, 0.074
72.000, 0.053
73.000, 0.040
74.000, 0.035
75.000, 0.036
76.000, 0.038
77.000, 0.039
78.000, 0.040
79.000, 0.050
80.000, 0.083
81.000, 0.073
82.000, 0.062
83.000, 0.076
84.000, 0.069
85.000, 0.061
86.000, 0.060
87.000, 0.065
88.000, 0.059
89.000, 0.056
90.000, 0.051
91.000, 0.053
92.000, 0.052
93.000, 0.068
94.000, 0.063
95.000, 0.050
96.000, 0.042
97.000, 0.039
98.000, 0.039
99.000, 0.044
100.000, 0.044
101.000, 0.044
102.000, 0.051
103.000, 0.061
104.000, 0.084
105.000, 0.107
106.000, 0.111
107.000, 0.073
108.000, 0.055
109.000, 0.043
110.000, 0.040
111.000, 0.038
112.000, 0.037
113.000, 0.035
114.000, 0.040
115.000, 0.042
116.000, 0.048
117.000, 0.065
118.000, 0.083
119.000, 0.102
120.000, 0.082
121.000, 0.056
122.000, 0.053
123.000, 0.053
124.000, 0.050
125.000, 0.047
126.000, 0.051
127.000, 0.054
128.000, 0.055
129.000, 0.062
130.000, 0.067
131.000, 0.065
132.000, 0.057
133.000, 0.069
134.000, 0.071
135.000, 0.060
136.000, 0.058
137.000, 0.081
138.000, 0.101
139.000, 0.058
140.000, 0.047
141.000, 0.044
142.000, 0.044
143.000, 0.042
144.000, 0.040
145.000, 0.043
146.000, 0.044
147.000, 0.050
148.000, 0.052
149.000, 0.042
150.000, 0.043
151.000, 0.046
152.000, 0.058
153.000, 0.053
154.000, 0.038
155.000, 0.042
156.000, 0.055
157.000, 0.063
158.000, 0.065
159.000, 0.074
160.000, 0.083
161.000, 0.070
162.000, 0.073
163.000, 0.069
164.000, 0.061
165.000, 0.053
166.000, 0.057
167.000, 0.059
168.000, 0.052
169.000, 0.052
170.000, 0.061
171.000, 0.060
172.000, 0.055
173.000, 0.066
174.000, 0.077
175.000, 0.073
176.000, 0.066
177.000, 0.049
178.000, 0.041
179.000, 0.037
180.000, 0.041
181.000, 0.039
182.000, 0.040
183.000, 0.048
184.000, 0.054
185.000, 0.054
186.000, 0.075
187.000, 0.088
188.000, 0.084
189.000, 0.095
190.000, 0.069
191.000, 0.047
192.000, 0.040
193.000, 0.044
194.000, 0.063
195.000, 0.111
196.000, 0.147
197.000, 0.175
198.000, 0.155
199.000, 0.117
200.000, 0.082
201.000, 0.052
202.000, 0.039
203.000, 0.033
204.000, 0.035
205.000, 0.034
206.000, 0.033
207.000, 0.037
208.000, 0.039
209.000, 0.045
210.000, 0.047
211.000, 0.057
212.000, 0.065
213.000, 0.073
214.000, 0.082
215.000, 0.086
216.000, 0.067
217.000, 0.060
218.000, 0.057
219.000, 0.046
220.000, 0.041
221.000, 0.041
222.000, 0.045
223.000, 0.054
224.000, 0.069
225.000, 0.079
226.000, 0.082
227.000, 0.069
228.000, 0.056
229.000, 0.054
230.000, 0.045
231.000, 0.041
232.000, 0.038
233.000, 0.035
234.000, 0.039
235.000, 0.039
236.000, 0.040
237.000, 0.052
238.000, 0.087
