Residue, (nm)
6.000, 0.131
7.000, 0.076
8.000, 0.052
9.000, 0.042
10.000, 0.040
11.000, 0.041
12.000, 0.040
13.000, 0.043
14.000, 0.055
15.000, 0.053
16.000, 0.055
17.000, 0.052
18.000, 0.055
19.000, 0.072
20.000, 0.084
21.000, 0.091
22.000, 0.092
23.000, 0.075
24.000, 0.061
25.000, 0.068
26.000, 0.066
27.000, 0.059
28.000, 0.068
29.000, 0.071
30.000, 0.065
31.000, 0.060
32.000, 0.074
33.000, 0.083
34.000, 0.071
35.000, 0.062
36.000, 0.049
37.000, 0.043
38.000, 0.043
39.000, 0.040
40.000, 0.039
41.000, 0.035
42.000, 0.035
43.000, 0.039
44.000, 0.041
45.000, 0.047
46.000, 0.052
47.000, 0.059
48.000, 0.071
49.000, 0.077
50.000, 0.066
51.000, 0.070
52.000, 0.071
53.000, 0.075
54.000, 0.069
55.000, 0.082
56.000, 0.075
57.000, 0.073
58.000, 0.064
59.000, 0.048
60.000, 0.054
61.000, 0.053
62.000, 0.048
63.000, 0.042
64.000, 0.046
65.000, 0.043
66.000, 0.053
67.000, 0.078
68.000, 0.091
69.000, 0.081
70.000, 0.078
71.000, 0.077
72.000, 0.058
73.000, 0.044
74.000, 0.038
75.000, 0.038
76.000, 0.039
77.000, 0.038
78.000, 0.041
79.000, 0.054
80.000, 0.102
81.000, 0.085
82.000, 0.073
83.000, 0.082
84.000, 0.068
85.000, 0.059
86.000, 0.056
87.000, 0.060
88.000, 0.055
89.000, 0.051
90.000, 0.049
91.000, 0.057
92.000, 0.057
93.000, 0.074
94.000, 0.074
95.000, 0.060
96.000, 0.051
97.000, 0.040
98.000, 0.039
99.000, 0.042
100.000, 0.042
101.000, 0.046
102.000, 0.058
103.000, 0.062
104.000, 0.080
105.000, 0.123
106.000, 0.112
107.000, 0.077
108.000, 0.063
109.000, 0.047
110.000, 0.044
111.000, 0.041
112.000, 0.039
113.000, 0.034
114.000, 0.043
115.000, 0.050
116.000, 0.049
117.000, 0.062
118.000, 0.083
119.000, 0.096
120.000, 0.084
121.000, 0.056
122.000, 0.051
123.000, 0.054
124.000, 0.054
125.000, 0.049
126.000, 0.054
127.000, 0.061
128.000, 0.061
129.000, 0.066
130.000, 0.073
131.000, 0.070
132.000, 0.063
133.000, 0.075
134.000, 0.078
135.000, 0.072
136.000, 0.070
137.000, 0.114
138.000, 0.151
139.000, 0.064
140.000, 0.042
141.000, 0.042
142.000, 0.050
143.000, 0.044
144.000, 0.045
145.000, 0.057
146.000, 0.045
147.000, 0.047
148.000, 0.048
149.000, 0.042
150.000, 0.043
151.000, 0.048
152.000, 0.069
153.000, 0.069
154.000, 0.048
155.000, 0.050
156.000, 0.070
157.000, 0.076
158.000, 0.072
159.000, 0.079
160.000, 0.090
161.000, 0.074
162.000, 0.072
163.000, 0.071
164.000, 0.062
165.000, 0.051
166.000, 0.056
167.000, 0.060
168.000, 0.052
169.000, 0.051
170.000, 0.060
171.000, 0.061
172.000, 0.053
173.000, 0.062
174.000, 0.072
175.000, 0.065
176.000, 0.056
177.000, 0.044
178.000, 0.038
179.000, 0.037
180.000, 0.040
181.000, 0.040
182.000, 0.041
183.000, 0.049
184.000, 0.059
185.000, 0.067
186.000, 0.111
187.000, 0.116
188.000, 0.107
189.000, 0.142
190.000, 0.107
191.000, 0.063
192.000, 0.047
193.000, 0.054
194.000, 0.076
195.000, 0.126
196.000, 0.170
197.000, 0.209
198.000, 0.199
199.000, 0.147
200.000, 0.101
201.000, 0.071
202.000, 0.054
203.000, 0.044
204.000, 0.045
205.000, 0.041
206.000, 0.038
207.000, 0.038
208.000, 0.040
209.000, 0.042
210.000, 0.041
211.000, 0.052
212.000, 0.064
213.000, 0.062
214.000, 0.069
215.000, 0.070
216.000, 0.055
217.000, 0.056
218.000, 0.057
219.000, 0.048
220.000, 0.043
221.000, 0.042
222.000, 0.046
223.000, 0.053
224.000, 0.070
225.000, 0.071
226.000, 0.072
227.000, 0.064
228.000, 0.052
229.000, 0.053
230.000, 0.047
231.000, 0.043
232.000, 0.038
233.000, 0.036
234.000, 0.039
235.000, 0.038
236.000, 0.040
237.000, 0.054
238.000, 0.093
