Residue, (nm)
6.000, 0.256
7.000, 0.137
8.000, 0.062
9.000, 0.045
10.000, 0.045
11.000, 0.044
12.000, 0.042
13.000, 0.045
14.000, 0.043
15.000, 0.044
16.000, 0.051
17.000, 0.050
18.000, 0.057
19.000, 0.086
20.000, 0.084
21.000, 0.083
22.000, 0.081
23.000, 0.068
24.000, 0.058
25.000, 0.063
26.000, 0.059
27.000, 0.054
28.000, 0.059
29.000, 0.061
30.000, 0.056
31.000, 0.053
32.000, 0.065
33.000, 0.074
34.000, 0.062
35.000, 0.054
36.000, 0.050
37.000, 0.045
38.000, 0.044
39.000, 0.042
40.000, 0.037
41.000, 0.037
42.000, 0.037
43.000, 0.041
44.000, 0.043
45.000, 0.049
46.000, 0.052
47.000, 0.057
48.000, 0.070
49.000, 0.079
50.000, 0.066
51.000, 0.069
52.000, 0.074
53.000, 0.069
54.000, 0.063
55.000, 0.070
56.000, 0.057
57.000, 0.059
58.000, 0.053
59.000, 0.046
60.000, 0.051
61.000, 0.049
62.000, 0.047
63.000, 0.043
64.000, 0.046
65.000, 0.041
66.000, 0.056
67.000, 0.082
68.000, 0.085
69.000, 0.079
70.000, 0.081
71.000, 0.073
72.000, 0.054
73.000, 0.041
74.000, 0.037
75.000, 0.038
76.000, 0.037
77.000, 0.041
78.000, 0.042
79.000, 0.045
80.000, 0.054
81.000, 0.061
82.000, 0.057
83.000, 0.074
84.000, 0.074
85.000, 0.084
86.000, 0.072
87.000, 0.061
88.000, 0.057
89.000, 0.056
90.000, 0.051
91.000, 0.058
92.000, 0.053
93.000, 0.066
94.000, 0.061
95.000, 0.051
96.000, 0.043
97.000, 0.037
98.000, 0.036
99.000, 0.042
100.000, 0.044
101.000, 0.049
102.000, 0.060
103.000, 0.062
104.000, 0.093
105.000, 0.139
106.000, 0.140
107.000, 0.121
108.000, 0.077
109.000, 0.052
110.000, 0.041
111.000, 0.040
112.000, 0.038
113.000, 0.035
114.000, 0.041
115.000, 0.043
116.000, 0.051
117.000, 0.074
118.000, 0.078
119.000, 0.115
120.000, 0.136
121.000, 0.084
122.000, 0.075
123.000, 0.072
124.000, 0.068
125.000, 0.063
126.000, 0.066
127.000, 0.066
128.000, 0.059
129.000, 0.064
130.000, 0.073
131.000, 0.072
132.000, 0.063
133.000, 0.075
134.000, 0.079
135.000, 0.070
136.000, 0.070
137.000, 0.072
138.000, 0.068
139.000, 0.053
140.000, 0.044
141.000, 0.039
142.000, 0.041
143.000, 0.040
144.000, 0.039
145.000, 0.049
146.000, 0.047
147.000, 0.051
148.000, 0.046
149.000, 0.061
150.000, 0.053
151.000, 0.052
152.000, 0.061
153.000, 0.059
154.000, 0.045
155.000, 0.051
156.000, 0.070
157.000, 0.086
158.000, 0.086
159.000, 0.100
160.000, 0.097
161.000, 0.083
162.000, 0.083
163.000, 0.078
164.000, 0.083
165.000, 0.071
166.000, 0.065
167.000, 0.071
168.000, 0.066
169.000, 0.058
170.000, 0.066
171.000, 0.067
172.000, 0.055
173.000, 0.064
174.000, 0.075
175.000, 0.067
176.000, 0.056
177.000, 0.043
178.000, 0.039
179.000, 0.037
180.000, 0.043
181.000, 0.044
182.000, 0.045
183.000, 0.053
184.000, 0.063
185.000, 0.067
186.000, 0.079
187.000, 0.088
188.000, 0.094
189.000, 0.128
190.000, 0.093
191.000, 0.060
192.000, 0.048
193.000, 0.055
194.000, 0.082
195.000, 0.135
196.000, 0.166
197.000, 0.190
198.000, 0.169
199.000, 0.128
200.000, 0.086
201.000, 0.068
202.000, 0.049
203.000, 0.042
204.000, 0.050
205.000, 0.043
206.000, 0.038
207.000, 0.039
208.000, 0.038
209.000, 0.043
210.000, 0.046
211.000, 0.054
212.000, 0.061
213.000, 0.061
214.000, 0.068
215.000, 0.072
216.000, 0.057
217.000, 0.061
218.000, 0.061
219.000, 0.051
220.000, 0.046
221.000, 0.049
222.000, 0.052
223.000, 0.057
224.000, 0.067
225.000, 0.068
226.000, 0.078
227.000, 0.074
228.000, 0.064
229.000, 0.062
230.000, 0.049
231.000, 0.047
232.000, 0.045
233.000, 0.048
234.000, 0.051
235.000, 0.045
236.000, 0.040
237.000, 0.056
238.000, 0.098
